0,-0.115,0
0.002,-0.115,0
0.004,-0.12,0
0.006,-0.12,0
0.008,-0.12,0
0.01,-0.12,0
0.012,-0.12,0
0.014,-0.115,0
0.016,-0.115,0
0.018,-0.115,0
0.02,-0.11,0
0.022,-0.11,0
0.024,-0.11,0
0.026,-0.11,0
0.028,-0.105,0
0.03,-0.105,0
0.032,-0.105,0
0.034,-0.105,0
0.036,-0.1,0
0.038,-0.1,0
0.04,-0.1,0
0.042,-0.1,0
0.044,-0.1,0
0.046,-0.1,0
0.048,-0.1,0
0.05,-0.1,0
0.052,-0.1,0
0.054,-0.095,0
0.056,-0.095,0
0.058,-0.095,0
0.06,-0.095,0
0.062,-0.09,0
0.064,-0.09,0
0.066,-0.09,0
0.068,-0.09,0
0.07,-0.085,0
0.072,-0.085,0
0.074,-0.085,0
0.076,-0.085,0
0.078,-0.085,0
0.08,-0.08,0
0.082,-0.08,0
0.084,-0.075,0
0.086,-0.07,0
0.088,-0.07,0
0.09,-0.065,0
0.092,-0.065,0
0.094,-0.06,0
0.096,-0.06,0
0.098,-0.06,0
0.1,-0.06,0
0.102,-0.065,0
0.104,-0.065,0
0.106,-0.06,0
0.108,-0.06,0
0.11,-0.055,0
0.112,-0.05,0
0.114,-0.05,0
0.116,-0.045,0
0.118,-0.04,0
0.12,-0.035,0
0.122,-0.03,0
0.124,-0.025,0
0.126,-0.02,0
0.128,-0.01,0
0.13,-0.005,0
0.132,0.005,0
0.134,0.01,0
0.136,0.02,0
0.138,0.025,0
0.14,0.025,0
0.142,0.03,0
0.144,0.03,0
0.146,0.03,0
0.148,0.035,0
0.15,0.035,0
0.152,0.04,0
0.154,0.045,0
0.156,0.055,0
0.158,0.065,0
0.16,0.075,0
0.162,0.085,0
0.164,0.095,0
0.166,0.1,0
0.168,0.105,0
0.17,0.11,0
0.172,0.115,0
0.174,0.12,0
0.176,0.125,0
0.178,0.125,0
0.18,0.125,0
0.182,0.125,0
0.184,0.125,0
0.186,0.12,0
0.188,0.12,0
0.19,0.115,0
0.192,0.11,0
0.194,0.105,0
0.196,0.105,0
0.198,0.1,0
0.2,0.1,0
0.202,0.1,0
0.204,0.1,0
0.206,0.095,0
0.208,0.09,0
0.21,0.085,0
0.212,0.075,0
0.214,0.065,0
0.216,0.05,0
0.218,0.04,0
0.22,0.025,0
0.222,0.015,0
0.224,0.01,0
0.226,0,0
0.228,-0.005,0
0.23,-0.01,0
0.232,-0.015,0
0.234,-0.02,0
0.236,-0.025,0
0.238,-0.035,0
0.24,-0.045,0
0.242,-0.055,0
0.244,-0.06,0
0.246,-0.065,0
0.248,-0.065,0
0.25,-0.06,0
0.252,-0.05,0
0.254,-0.035,0
0.256,-0.015,0
0.258,0,0
0.26,0.015,0
0.262,0.025,0
0.264,0.03,0
0.266,0.035,0
0.268,0.035,0
0.27,0.03,0
0.272,0.025,0
0.274,0.025,0
0.276,0.025,0
0.278,0.025,0
0.28,0.03,0
0.282,0.03,0
0.284,0.035,0
0.286,0.04,0
0.288,0.045,0
0.29,0.05,0
0.292,0.05,0
0.294,0.05,0
0.296,0.05,0
0.298,0.055,0
0.3,0.055,0
0.302,0.06,0
0.304,0.06,0
0.306,0.065,0
0.308,0.065,0
0.31,0.07,0
0.312,0.07,0
0.314,0.07,0
0.316,0.07,0
0.318,0.07,0
0.32,0.065,0
0.322,0.065,0
0.324,0.065,0
0.326,0.06,0
0.328,0.06,0
0.33,0.06,0
0.332,0.065,0
0.334,0.065,0
0.336,0.07,0
0.338,0.07,0
0.34,0.07,0
0.342,0.075,0
0.344,0.075,0
0.346,0.075,0
0.348,0.075,0
0.35,0.07,0
0.352,0.07,0
0.354,0.07,0
0.356,0.07,0
0.358,0.065,0
0.36,0.065,0
0.362,0.065,0
0.364,0.065,0
0.366,0.065,0
0.368,0.065,0
0.37,0.06,0
0.372,0.06,0
0.374,0.06,0
0.376,0.065,0
0.378,0.065,0
0.38,0.065,0
0.382,0.07,0
0.384,0.07,0
0.386,0.075,0
0.388,0.075,0
0.39,0.075,0
0.392,0.075,0
0.394,0.07,0
0.396,0.07,0
0.398,0.065,0
0.4,0.065,0
0.402,0.06,0
0.404,0.055,0
0.406,0.055,0
0.408,0.055,0
0.41,0.05,0
0.412,0.05,0
0.414,0.05,0
0.416,0.05,0
0.418,0.05,0
0.42,0.045,0
0.422,0.045,0
0.424,0.045,0
0.426,0.04,0
0.428,0.035,0
0.43,0.035,0
0.432,0.03,0
0.434,0.03,0
0.436,0.025,0
0.438,0.025,0
0.44,0.03,0
0.442,0.03,0
0.444,0.035,0
0.446,0.04,0
0.448,0.045,0
0.45,0.045,0
0.452,0.045,0
0.454,0.045,0
0.456,0.045,0
0.458,0.045,0
0.46,0.045,0
0.462,0.045,0
0.464,0.05,0
0.466,0.05,0
0.468,0.05,0
0.47,0.05,0
0.472,0.045,0
0.474,0.04,0
0.476,0.035,0
0.478,0.03,0
0.48,0.02,0
0.482,0.02,0
0.484,0.02,0
0.486,0.02,0
0.488,0.025,0
0.49,0.035,0
0.492,0.04,0
0.494,0.04,0
0.496,0.045,0
0.498,0.045,0
0.5,0.04,0
0.502,0.035,0
0.504,0.03,0
0.506,0.025,0
0.508,0.025,0
0.51,0.03,0
0.512,0.03,0
0.514,0.035,0
0.516,0.045,0
0.518,0.05,0
0.52,0.055,0
0.522,0.06,0
0.524,0.06,0
0.526,0.06,0
0.528,0.065,0
0.53,0.06,0
0.532,0.06,0
0.534,0.06,0
0.536,0.055,0
0.538,0.055,0
0.54,0.05,0
0.542,0.045,0
0.544,0.045,0
0.546,0.04,0
0.548,0.045,0
0.55,0.05,0
0.552,0.055,0
0.554,0.06,0
0.556,0.07,0
0.558,0.075,0
0.56,0.08,0
0.562,0.085,0
0.564,0.08,0
0.566,0.075,0
0.568,0.07,0
0.57,0.065,0
0.572,0.055,0
0.574,0.05,0
0.576,0.045,0
0.578,0.04,0
0.58,0.04,0
0.582,0.035,0
0.584,0.03,0
0.586,0.02,0
0.588,0.015,0
0.59,0.01,0
0.592,0.01,0
0.594,0.005,0
0.596,0.005,0
0.598,0.01,0
0.6,0.015,0
0.602,0.015,0
0.604,0.02,0
0.606,0.02,0
0.608,0.02,0
0.61,0.02,0
0.612,0.02,0
0.614,0.015,0
0.616,0.015,0
0.618,0.015,0
0.62,0.01,0
0.622,0.01,0
0.624,0.005,0
0.626,0.005,0
0.628,0,0
0.63,-0.005,0
0.632,-0.01,0
0.634,-0.01,0
0.636,-0.01,0
0.638,-0.01,0
0.64,-0.01,0
0.642,-0.01,0
0.644,-0.01,0
0.646,-0.01,0
0.648,-0.015,0
0.65,-0.015,0
0.652,-0.02,0
0.654,-0.025,0
0.656,-0.03,0
0.658,-0.03,0
0.66,-0.03,0
0.662,-0.03,0
0.664,-0.03,0
0.666,-0.025,0
0.668,-0.025,0
0.67,-0.03,0
0.672,-0.035,0
0.674,-0.04,0
0.676,-0.045,0
0.678,-0.045,0
0.68,-0.035,0
0.682,-0.015,0
0.684,0.025,0
0.686,0.075,0
0.688,0.14,0
0.69,0.22,0
0.692,0.305,0
0.694,0.39,0
0.696,0.47,0
0.698,0.535,0
0.7,0.59,0
0.702,0.62,0
0.704,0.625,0
0.706,0.6,0
0.708,0.555,0
0.71,0.485,0
0.712,0.395,0
0.714,0.295,0
0.716,0.19,0
0.718,0.09,0
0.72,0,0
0.722,-0.07,0
0.724,-0.12,0
0.726,-0.145,0
0.728,-0.15,0
0.73,-0.14,0
0.732,-0.115,0
0.734,-0.09,0
0.736,-0.06,0
0.738,-0.04,0
0.74,-0.025,0
0.742,-0.015,0
0.744,-0.015,0
0.746,-0.02,0
0.748,-0.025,0
0.75,-0.035,0
0.752,-0.035,0
0.754,-0.04,0
0.756,-0.04,0
0.758,-0.04,0
0.76,-0.04,0
0.762,-0.035,0
0.764,-0.035,0
0.766,-0.035,0
0.768,-0.04,0
0.77,-0.04,0
0.772,-0.04,0
0.774,-0.045,0
0.776,-0.045,0
0.778,-0.045,0
0.78,-0.045,0
0.782,-0.045,0
0.784,-0.045,0
0.786,-0.04,0
0.788,-0.04,0
0.79,-0.035,0
0.792,-0.03,0
0.794,-0.03,0
0.796,-0.025,0
0.798,-0.025,0
0.8,-0.025,0
0.802,-0.025,0
0.804,-0.025,0
0.806,-0.025,0
0.808,-0.025,0
0.81,-0.025,0
0.812,-0.03,0
0.814,-0.03,0
0.816,-0.03,0
0.818,-0.03,0
0.82,-0.025,0
0.822,-0.025,0
0.824,-0.02,0
0.826,-0.02,0
0.828,-0.015,0
0.83,-0.01,0
0.832,-0.01,0
0.834,-0.01,0
0.836,-0.01,0
0.838,-0.01,0
0.84,-0.01,0
0.842,-0.01,0
0.844,-0.01,0
0.846,-0.01,0
0.848,-0.005,0
0.85,0,0
0.852,0.005,0
0.854,0.01,0
0.856,0.015,0
0.858,0.02,0
0.86,0.025,0
0.862,0.025,0
0.864,0.03,0
0.866,0.03,0
0.868,0.035,0
0.87,0.04,0
0.872,0.045,0
0.874,0.05,0
0.876,0.055,0
0.878,0.065,0
0.88,0.07,0
0.882,0.07,0
0.884,0.075,0
0.886,0.075,0
0.888,0.075,0
0.89,0.075,0
0.892,0.075,0
0.894,0.08,0
0.896,0.085,0
0.898,0.09,0
0.9,0.095,0
0.902,0.105,0
0.904,0.115,0
0.906,0.12,0
0.908,0.13,0
0.91,0.135,0
0.912,0.14,0
0.914,0.14,0
0.916,0.145,0
0.918,0.145,0
0.92,0.145,0
0.922,0.145,0
0.924,0.145,0
0.926,0.15,0
0.928,0.15,0
0.93,0.155,0
0.932,0.16,0
0.934,0.165,0
0.936,0.17,0
0.938,0.175,0
0.94,0.175,0
0.942,0.17,0
0.944,0.165,0
0.946,0.155,0
0.948,0.14,0
0.95,0.13,0
0.952,0.12,0
0.954,0.115,0
0.956,0.11,0
0.958,0.105,0
0.96,0.1,0
0.962,0.095,0
0.964,0.085,0
0.966,0.075,0
0.968,0.06,0
0.97,0.045,0
0.972,0.03,0
0.974,0.015,0
0.976,0.005,0
0.978,-0.005,0
0.98,-0.005,0
0.982,-0.005,0
0.984,-0.005,0
0.986,-0.005,0
0.988,-0.005,0
0.99,-0.01,0
0.992,-0.015,0
0.994,-0.025,0
0.996,-0.035,0
0.998,-0.04,0
1,-0.045,0
1.002,-0.05,0
1.004,-0.05,0
1.006,-0.05,0
1.008,-0.045,0
1.01,-0.05,0
1.012,-0.05,0
1.014,-0.055,0
1.016,-0.06,0
1.018,-0.07,0
1.02,-0.075,0
1.022,-0.075,0
1.024,-0.08,0
1.026,-0.08,0
1.028,-0.075,0
1.03,-0.07,0
1.032,-0.065,0
1.034,-0.06,0
1.036,-0.06,0
1.038,-0.055,0
1.04,-0.055,0
1.042,-0.055,0
1.044,-0.055,0
1.046,-0.055,0
1.048,-0.055,0
1.05,-0.055,0
1.052,-0.055,0
1.054,-0.055,0
1.056,-0.06,0
1.058,-0.06,0
1.06,-0.065,0
1.062,-0.065,0
1.064,-0.065,0
1.066,-0.065,0
1.068,-0.06,0
1.07,-0.06,0
1.072,-0.055,0
1.074,-0.055,0
1.076,-0.055,0
1.078,-0.05,0
1.08,-0.055,0
1.082,-0.055,0
1.084,-0.055,0
1.086,-0.06,0
1.088,-0.06,0
1.09,-0.06,0
1.092,-0.06,0
1.094,-0.06,0
1.096,-0.06,0
1.098,-0.065,0
1.1,-0.065,0
1.102,-0.065,0
1.104,-0.07,0
1.106,-0.07,0
1.108,-0.07,0
1.11,-0.07,0
1.112,-0.065,0
1.114,-0.065,0
1.116,-0.06,0
1.118,-0.055,0
1.12,-0.055,0
1.122,-0.05,0
1.124,-0.055,0
1.126,-0.055,0
1.128,-0.055,0
1.13,-0.06,0
1.132,-0.06,0
1.134,-0.06,0
1.136,-0.06,0
1.138,-0.055,0
1.14,-0.055,0
1.142,-0.05,0
1.144,-0.045,0
1.146,-0.04,0
1.148,-0.04,0
1.15,-0.035,0
1.152,-0.035,0
1.154,-0.035,0
1.156,-0.035,0
1.158,-0.035,0
1.16,-0.035,0
1.162,-0.035,0
1.164,-0.035,0
1.166,-0.035,0
1.168,-0.03,0
1.17,-0.03,0
1.172,-0.03,0
1.174,-0.035,0
1.176,-0.035,0
1.178,-0.035,0
1.18,-0.04,0
1.182,-0.045,0
1.184,-0.045,0
1.186,-0.05,0
1.188,-0.05,0
1.19,-0.05,0
1.192,-0.05,0
1.194,-0.05,0
1.196,-0.05,0
1.198,-0.05,0
1.2,-0.05,0
1.202,-0.05,0
1.204,-0.055,0
1.206,-0.055,0
1.208,-0.06,0
1.21,-0.06,0
1.212,-0.065,0
1.214,-0.065,0
1.216,-0.065,0
1.218,-0.06,0
1.22,-0.06,0
1.222,-0.06,0
1.224,-0.06,0
1.226,-0.06,0
1.228,-0.06,0
1.23,-0.06,0
1.232,-0.06,0
1.234,-0.06,0
1.236,-0.06,0
1.238,-0.06,0
1.24,-0.06,0
1.242,-0.055,0
1.244,-0.05,0
1.246,-0.05,0
1.248,-0.045,0
1.25,-0.045,0
1.252,-0.04,0
1.254,-0.04,0
1.256,-0.04,0
1.258,-0.035,0
1.26,-0.035,0
1.262,-0.03,0
1.264,-0.03,0
1.266,-0.025,0
1.268,-0.025,0
1.27,-0.02,0
1.272,-0.02,0
1.274,-0.02,0
1.276,-0.02,0
1.278,-0.02,0
1.28,-0.02,0
1.282,-0.02,0
1.284,-0.025,0
1.286,-0.025,0
1.288,-0.03,0
1.29,-0.03,0
1.292,-0.035,0
1.294,-0.035,0
1.296,-0.035,0
1.298,-0.03,0
1.3,-0.03,0
1.302,-0.025,0
1.304,-0.015,0
1.306,-0.01,0
1.308,-0.005,0
1.31,0,0
1.312,0,0
1.314,0,0
1.316,0,0
1.318,-0.005,0
1.32,-0.01,0
1.322,-0.015,0
1.324,-0.02,0
1.326,-0.025,0
1.328,-0.03,0
1.33,-0.035,0
1.332,-0.04,0
1.334,-0.045,0
1.336,-0.055,0
1.338,-0.06,0
1.34,-0.07,0
1.342,-0.075,0
1.344,-0.08,0
1.346,-0.08,0
1.348,-0.08,0
1.35,-0.08,0
1.352,-0.075,0
1.354,-0.075,0
1.356,-0.075,0
1.358,-0.075,0
1.36,-0.075,0
1.362,-0.075,0
1.364,-0.075,0
1.366,-0.075,0
1.368,-0.075,0
1.37,-0.075,0
1.372,-0.075,0
1.374,-0.075,0
1.376,-0.08,0
1.378,-0.08,0
1.38,-0.085,0
1.382,-0.09,0
1.384,-0.095,0
1.386,-0.095,0
1.388,-0.095,0
1.39,-0.095,0
1.392,-0.09,0
1.394,-0.085,0
1.396,-0.085,0
1.398,-0.085,0
1.4,-0.085,0
1.402,-0.09,0
1.404,-0.095,0
1.406,-0.1,0
1.408,-0.105,0
1.41,-0.105,0
1.412,-0.105,0
1.414,-0.105,0
1.416,-0.105,0
1.418,-0.105,0
1.42,-0.11,0
1.422,-0.115,0
1.424,-0.125,0
1.426,-0.13,0
1.428,-0.13,0
1.43,-0.12,0
1.432,-0.095,0
1.434,-0.055,0
1.436,-0.005,0
1.438,0.06,0
1.44,0.14,0
1.442,0.225,0
1.444,0.31,0
1.446,0.395,0
1.448,0.47,0
1.45,0.53,0
1.452,0.575,0
1.454,0.595,0
1.456,0.59,0
1.458,0.555,0
1.46,0.495,0
1.462,0.41,0
1.464,0.31,0
1.466,0.2,0
1.468,0.085,0
1.47,-0.015,0
1.472,-0.095,0
1.474,-0.15,0
1.476,-0.18,0
1.478,-0.185,0
1.48,-0.17,0
1.482,-0.14,0
1.484,-0.11,0
1.486,-0.08,0
1.488,-0.06,0
1.49,-0.055,0
1.492,-0.055,0
1.494,-0.065,0
1.496,-0.075,0
1.498,-0.085,0
1.5,-0.095,0
1.502,-0.1,0
1.504,-0.1,0
1.506,-0.095,0
1.508,-0.09,0
1.51,-0.085,0
1.512,-0.085,0
1.514,-0.08,0
1.516,-0.08,0
1.518,-0.08,0
1.52,-0.08,0
1.522,-0.08,0
1.524,-0.08,0
1.526,-0.075,0
1.528,-0.07,0
1.53,-0.07,0
1.532,-0.065,0
1.534,-0.065,0
1.536,-0.065,0
1.538,-0.07,0
1.54,-0.07,0
1.542,-0.07,0
1.544,-0.065,0
1.546,-0.065,0
1.548,-0.06,0
1.55,-0.055,0
1.552,-0.05,0
1.554,-0.045,0
1.556,-0.045,0
1.558,-0.04,0
1.56,-0.04,0
1.562,-0.035,0
1.564,-0.035,0
1.566,-0.03,0
1.568,-0.025,0
1.57,-0.025,0
1.572,-0.02,0
1.574,-0.015,0
1.576,-0.015,0
1.578,-0.015,0
1.58,-0.015,0
1.582,-0.02,0
1.584,-0.02,0
1.586,-0.02,0
1.588,-0.02,0
1.59,-0.02,0
1.592,-0.015,0
1.594,-0.01,0
1.596,-0.005,0
1.598,0.005,0
1.6,0.01,0
1.602,0.015,0
1.604,0.02,0
1.606,0.02,0
1.608,0.02,0
1.61,0.02,0
1.612,0.02,0
1.614,0.015,0
1.616,0.015,0
1.618,0.01,0
1.62,0.01,0
1.622,0.015,0
1.624,0.02,0
1.626,0.025,0
1.628,0.035,0
1.63,0.045,0
1.632,0.06,0
1.634,0.07,0
1.636,0.075,0
1.638,0.085,0
1.64,0.09,0
1.642,0.095,0
1.644,0.1,0
1.646,0.105,0
1.648,0.11,0
1.65,0.115,0
1.652,0.125,0
1.654,0.13,0
1.656,0.14,0
1.658,0.145,0
1.66,0.155,0
1.662,0.16,0
1.664,0.16,0
1.666,0.165,0
1.668,0.165,0
1.67,0.165,0
1.672,0.17,0
1.674,0.175,0
1.676,0.175,0
1.678,0.175,0
1.68,0.175,0
1.682,0.175,0
1.684,0.17,0
1.686,0.165,0
1.688,0.155,0
1.69,0.15,0
1.692,0.145,0
1.694,0.14,0
1.696,0.14,0
1.698,0.14,0
1.7,0.14,0
1.702,0.14,0
1.704,0.135,0
1.706,0.13,0
1.708,0.12,0
1.71,0.11,0
1.712,0.09,0
1.714,0.075,0
1.716,0.06,0
1.718,0.045,0
1.72,0.035,0
1.722,0.03,0
1.724,0.03,0
1.726,0.025,0
1.728,0.025,0
1.73,0.02,0
1.732,0.02,0
1.734,0.01,0
1.736,0,0
1.738,-0.01,0
1.74,-0.02,0
1.742,-0.03,0
1.744,-0.035,0
1.746,-0.04,0
1.748,-0.045,0
1.75,-0.045,0
1.752,-0.045,0
1.754,-0.045,0
1.756,-0.05,0
1.758,-0.05,0
1.76,-0.055,0
1.762,-0.06,0
1.764,-0.06,0
1.766,-0.065,0
1.768,-0.065,0
1.77,-0.07,0
1.772,-0.07,0
1.774,-0.065,0
1.776,-0.065,0
1.778,-0.06,0
1.78,-0.06,0
1.782,-0.06,0
1.784,-0.055,0
1.786,-0.055,0
1.788,-0.06,0
1.79,-0.06,0
1.792,-0.06,0
1.794,-0.06,0
1.796,-0.06,0
1.798,-0.06,0
1.8,-0.065,0
1.802,-0.065,0
1.804,-0.065,0
1.806,-0.065,0
1.808,-0.065,0
1.81,-0.07,0
1.812,-0.07,0
1.814,-0.07,0
1.816,-0.075,0
1.818,-0.075,0
1.82,-0.08,0
1.822,-0.085,0
1.824,-0.09,0
1.826,-0.09,0
1.828,-0.095,0
1.83,-0.095,0
1.832,-0.095,0
1.834,-0.09,0
1.836,-0.085,0
1.838,-0.08,0
1.84,-0.075,0
1.842,-0.07,0
1.844,-0.065,0
1.846,-0.065,0
1.848,-0.065,0
1.85,-0.065,0
1.852,-0.065,0
1.854,-0.07,0
1.856,-0.07,0
1.858,-0.07,0
1.86,-0.065,0
1.862,-0.065,0
1.864,-0.06,0
1.866,-0.06,0
1.868,-0.055,0
1.87,-0.055,0
1.872,-0.06,0
1.874,-0.06,0
1.876,-0.065,0
1.878,-0.065,0
1.88,-0.07,0
1.882,-0.07,0
1.884,-0.075,0
1.886,-0.075,0
1.888,-0.075,0
1.89,-0.075,0
1.892,-0.075,0
1.894,-0.075,0
1.896,-0.075,0
1.898,-0.075,0
1.9,-0.075,0
1.902,-0.08,0
1.904,-0.08,0
1.906,-0.08,0
1.908,-0.08,0
1.91,-0.08,0
1.912,-0.08,0
1.914,-0.08,0
1.916,-0.08,0
1.918,-0.08,0
1.92,-0.08,0
1.922,-0.08,0
1.924,-0.08,0
1.926,-0.085,0
1.928,-0.085,0
1.93,-0.085,0
1.932,-0.085,0
1.934,-0.09,0
1.936,-0.09,0
1.938,-0.095,0
1.94,-0.095,0
1.942,-0.1,0
1.944,-0.1,0
1.946,-0.1,0
1.948,-0.1,0
1.95,-0.1,0
1.952,-0.1,0
1.954,-0.1,0
1.956,-0.1,0
1.958,-0.1,0
1.96,-0.1,0
1.962,-0.105,0
1.964,-0.105,0
1.966,-0.11,0
1.968,-0.11,0
1.97,-0.11,0
1.972,-0.115,0
1.974,-0.115,0
1.976,-0.115,0
1.978,-0.115,0
1.98,-0.115,0
1.982,-0.115,0
1.984,-0.115,0
1.986,-0.115,0
1.988,-0.115,0
1.99,-0.11,0
1.992,-0.11,0
1.994,-0.11,0
1.996,-0.105,0
1.998,-0.105,0
2,-0.105,0
2.002,-0.11,0
2.004,-0.11,0
2.006,-0.115,0
2.008,-0.12,0
2.01,-0.12,0
2.012,-0.125,0
2.014,-0.12,0
2.016,-0.12,0
2.018,-0.11,0
2.02,-0.105,0
2.022,-0.1,0
2.024,-0.095,0
2.026,-0.09,0
2.028,-0.095,0
2.03,-0.1,0
2.032,-0.105,0
2.034,-0.11,0
2.036,-0.115,0
2.038,-0.12,0
2.04,-0.12,0
2.042,-0.12,0
2.044,-0.12,0
2.046,-0.115,0
2.048,-0.115,0
2.05,-0.115,0
2.052,-0.115,0
2.054,-0.11,0
2.056,-0.11,0
2.058,-0.105,0
2.06,-0.095,0
2.062,-0.085,0
2.064,-0.07,0
2.066,-0.055,0
2.068,-0.04,0
2.07,-0.025,0
2.072,-0.01,0
2.074,0,0
2.076,0.005,0
2.078,0.01,0
2.08,0.015,0
2.082,0.015,0
2.084,0.015,0
2.086,0.015,0
2.088,0.02,0
2.09,0.02,0
2.092,0.025,0
2.094,0.03,0
2.096,0.04,0
2.098,0.045,0
2.1,0.05,0
2.102,0.06,0
2.104,0.065,0
2.106,0.07,0
2.108,0.075,0
2.11,0.08,0
2.112,0.08,0
2.114,0.08,0
2.116,0.085,0
2.118,0.085,0
2.12,0.085,0
2.122,0.085,0
2.124,0.08,0
2.126,0.08,0
2.128,0.08,0
2.13,0.075,0
2.132,0.075,0
2.134,0.07,0
2.136,0.065,0
2.138,0.065,0
2.14,0.06,0
2.142,0.055,0
2.144,0.055,0
2.146,0.05,0
2.148,0.045,0
2.15,0.04,0
2.152,0.04,0
2.154,0.035,0
2.156,0.03,0
2.158,0.03,0
2.16,0.03,0
2.162,0.03,0
2.164,0.03,0
2.166,0.035,0
2.168,0.035,0
2.17,0.035,0
2.172,0.035,0
2.174,0.03,0
2.176,0.025,0
2.178,0.02,0
2.18,0.015,0
2.182,0.01,0
2.184,0.005,0
2.186,0,0
2.188,-0.005,0
2.19,-0.005,0
2.192,-0.005,0
2.194,-0.005,0
2.196,-0.005,0
2.198,0,0
2.2,0,0
2.202,0.005,0
2.204,0.005,0
2.206,0.01,0
2.208,0.01,0
2.21,0.005,0
2.212,0.005,0
2.214,0.005,0
2.216,0,0
2.218,0,0
2.22,0,0
2.222,0,0
2.224,-0.005,0
2.226,-0.005,0
2.228,-0.005,0
2.23,-0.01,0
2.232,-0.02,0
2.234,-0.025,0
2.236,-0.035,0
2.238,-0.04,0
2.24,-0.045,0
2.242,-0.04,0
2.244,-0.025,0
2.246,0,0
2.248,0.04,0
2.25,0.09,0
2.252,0.155,0
2.254,0.23,0
2.256,0.31,0
2.258,0.4,0
2.26,0.49,0
2.262,0.575,0
2.264,0.65,0
2.266,0.705,0
2.268,0.735,0
2.27,0.735,0
2.272,0.705,0
2.274,0.64,0
2.276,0.55,0
2.278,0.44,0
2.28,0.32,0
2.282,0.205,0
2.284,0.1,0
2.286,0.015,0
2.288,-0.045,0
2.29,-0.075,0
2.292,-0.085,0
2.294,-0.075,0
2.296,-0.055,0
2.298,-0.035,0
2.3,-0.01,0
2.302,0.005,0
2.304,0.01,0
2.306,0.015,0
2.308,0.015,0
2.31,0.015,0
2.312,0.015,0
2.314,0.02,0
2.316,0.025,0
2.318,0.03,0
2.32,0.03,0
2.322,0.035,0
2.324,0.035,0
2.326,0.03,0
2.328,0.025,0
2.33,0.02,0
2.332,0.015,0
2.334,0.01,0
2.336,0.01,0
2.338,0.015,0
2.34,0.02,0
2.342,0.025,0
2.344,0.03,0
2.346,0.03,0
2.348,0.035,0
2.35,0.03,0
2.352,0.03,0
2.354,0.025,0
2.356,0.025,0
2.358,0.025,0
2.36,0.02,0
2.362,0.02,0
2.364,0.02,0
2.366,0.02,0
2.368,0.02,0
2.37,0.02,0
2.372,0.02,0
2.374,0.02,0
2.376,0.02,0
2.378,0.02,0
2.38,0.025,0
2.382,0.025,0
2.384,0.03,0
2.386,0.035,0
2.388,0.04,0
2.39,0.04,0
2.392,0.045,0
2.394,0.045,0
2.396,0.045,0
2.398,0.045,0
2.4,0.045,0
2.402,0.04,0
2.404,0.04,0
2.406,0.04,0
2.408,0.045,0
2.41,0.045,0
2.412,0.045,0
2.414,0.05,0
2.416,0.05,0
2.418,0.05,0
2.42,0.055,0
2.422,0.055,0
2.424,0.06,0
2.426,0.065,0
2.428,0.07,0
2.43,0.075,0
2.432,0.08,0
2.434,0.085,0
2.436,0.09,0
2.438,0.09,0
2.44,0.095,0
2.442,0.095,0
2.444,0.095,0
2.446,0.1,0
2.448,0.105,0
2.45,0.11,0
2.452,0.12,0
2.454,0.13,0
2.456,0.14,0
2.458,0.15,0
2.46,0.165,0
2.462,0.17,0
2.464,0.18,0
2.466,0.185,0
2.468,0.185,0
2.47,0.19,0
2.472,0.19,0
2.474,0.19,0
2.476,0.19,0
2.478,0.19,0
2.48,0.195,0
2.482,0.2,0
2.484,0.205,0
2.486,0.205,0
2.488,0.21,0
2.49,0.215,0
2.492,0.215,0
2.494,0.215,0
2.496,0.21,0
2.498,0.205,0
2.5,0.2,0
2.502,0.195,0
2.504,0.19,0
2.506,0.185,0
2.508,0.185,0
2.51,0.18,0
2.512,0.175,0
2.514,0.17,0
2.516,0.16,0
2.518,0.15,0
2.52,0.135,0
2.522,0.12,0
2.524,0.105,0
2.526,0.09,0
2.528,0.075,0
2.53,0.065,0
2.532,0.055,0
2.534,0.05,0
2.536,0.045,0
2.538,0.045,0
2.54,0.04,0
2.542,0.03,0
2.544,0.025,0
2.546,0.015,0
2.548,0.005,0
2.55,-0.005,0
2.552,-0.015,0
2.554,-0.02,0
2.556,-0.025,0
2.558,-0.03,0
2.56,-0.03,0
2.562,-0.035,0
2.564,-0.035,0
2.566,-0.04,0
2.568,-0.05,0
2.57,-0.055,0
2.572,-0.06,0
2.574,-0.065,0
2.576,-0.065,0
2.578,-0.065,0
2.58,-0.065,0
2.582,-0.06,0
2.584,-0.06,0
2.586,-0.06,0
2.588,-0.065,0
2.59,-0.07,0
2.592,-0.075,0
2.594,-0.08,0
2.596,-0.09,0
2.598,-0.09,0
2.6,-0.09,0
2.602,-0.09,0
2.604,-0.085,0
2.606,-0.08,0
2.608,-0.075,0
2.61,-0.075,0
2.612,-0.075,0
2.614,-0.08,0
2.616,-0.085,0
2.618,-0.09,0
2.62,-0.095,0
2.622,-0.1,0
2.624,-0.1,0
2.626,-0.1,0
2.628,-0.1,0
2.63,-0.09,0
2.632,-0.085,0
2.634,-0.075,0
2.636,-0.07,0
2.638,-0.065,0
2.64,-0.06,0
2.642,-0.065,0
2.644,-0.065,0
2.646,-0.07,0
2.648,-0.075,0
2.65,-0.08,0
2.652,-0.085,0
2.654,-0.085,0
2.656,-0.09,0
2.658,-0.09,0
2.66,-0.09,0
2.662,-0.085,0
2.664,-0.085,0
2.666,-0.08,0
2.668,-0.08,0
2.67,-0.075,0
2.672,-0.075,0
2.674,-0.07,0
2.676,-0.07,0
2.678,-0.07,0
2.68,-0.07,0
2.682,-0.075,0
2.684,-0.075,0
2.686,-0.08,0
2.688,-0.085,0
2.69,-0.085,0
2.692,-0.085,0
2.694,-0.085,0
2.696,-0.085,0
2.698,-0.08,0
2.7,-0.08,0
2.702,-0.075,0
2.704,-0.075,0
2.706,-0.075,0
2.708,-0.075,0
2.71,-0.075,0
2.712,-0.08,0
2.714,-0.08,0
2.716,-0.08,0
2.718,-0.08,0
2.72,-0.08,0
2.722,-0.08,0
2.724,-0.08,0
2.726,-0.08,0
2.728,-0.085,0
2.73,-0.09,0
2.732,-0.09,0
2.734,-0.095,0
2.736,-0.095,0
2.738,-0.1,0
2.74,-0.1,0
2.742,-0.1,0
2.744,-0.095,0
2.746,-0.095,0
2.748,-0.095,0
2.75,-0.09,0
2.752,-0.09,0
2.754,-0.09,0
2.756,-0.09,0
2.758,-0.09,0
2.76,-0.095,0
2.762,-0.095,0
2.764,-0.095,0
2.766,-0.09,0
2.768,-0.09,0
2.77,-0.085,0
2.772,-0.08,0
2.774,-0.075,0
2.776,-0.07,0
2.778,-0.07,0
2.78,-0.065,0
2.782,-0.065,0
2.784,-0.065,0
2.786,-0.07,0
2.788,-0.075,0
2.79,-0.08,0
2.792,-0.09,0
2.794,-0.095,0
2.796,-0.095,0
2.798,-0.1,0
2.8,-0.095,0
2.802,-0.095,0
2.804,-0.09,0
2.806,-0.08,0
2.808,-0.08,0
2.81,-0.075,0
2.812,-0.075,0
2.814,-0.075,0
2.816,-0.08,0
2.818,-0.085,0
2.82,-0.085,0
2.822,-0.09,0
2.824,-0.095,0
2.826,-0.095,0
2.828,-0.095,0
2.83,-0.095,0
2.832,-0.095,0
2.834,-0.095,0
2.836,-0.095,0
2.838,-0.095,0
2.84,-0.1,0
2.842,-0.1,0
2.844,-0.1,0
2.846,-0.1,0
2.848,-0.1,0
2.85,-0.1,0
2.852,-0.1,0
2.854,-0.1,0
2.856,-0.1,0
2.858,-0.095,0
2.86,-0.095,0
2.862,-0.095,0
2.864,-0.09,0
2.866,-0.085,0
2.868,-0.085,0
2.87,-0.08,0
2.872,-0.075,0
2.874,-0.075,0
2.876,-0.07,0
2.878,-0.07,0
2.88,-0.075,0
2.882,-0.075,0
2.884,-0.08,0
2.886,-0.085,0
2.888,-0.09,0
2.89,-0.09,0
2.892,-0.09,0
2.894,-0.09,0
2.896,-0.09,0
2.898,-0.085,0
2.9,-0.085,0
2.902,-0.08,0
2.904,-0.08,0
2.906,-0.08,0
2.908,-0.08,0
2.91,-0.08,0
2.912,-0.08,0
2.914,-0.085,0
2.916,-0.085,0
2.918,-0.085,0
2.92,-0.08,0
2.922,-0.08,0
2.924,-0.08,0
2.926,-0.075,0
2.928,-0.075,0
2.93,-0.07,0
2.932,-0.07,0
2.934,-0.065,0
2.936,-0.065,0
2.938,-0.065,0
2.94,-0.065,0
2.942,-0.065,0
2.944,-0.065,0
2.946,-0.07,0
2.948,-0.075,0
2.95,-0.08,0
2.952,-0.08,0
2.954,-0.085,0
2.956,-0.085,0
2.958,-0.085,0
2.96,-0.08,0
2.962,-0.075,0
2.964,-0.075,0
2.966,-0.07,0
2.968,-0.07,0
2.97,-0.07,0
2.972,-0.07,0
2.974,-0.07,0
2.976,-0.07,0
2.978,-0.07,0
2.98,-0.065,0
2.982,-0.065,0
2.984,-0.06,0
2.986,-0.06,0
2.988,-0.055,0
2.99,-0.055,0
2.992,-0.055,0
2.994,-0.055,0
2.996,-0.055,0
2.998,-0.055,0
3,-0.055,0
3.002,-0.055,0
3.004,-0.055,0
3.006,-0.05,0
3.008,-0.05,0
3.01,-0.045,0
3.012,-0.045,0
3.014,-0.04,0
3.016,-0.04,0
3.018,-0.035,0
3.02,-0.03,0
3.022,-0.025,0
3.024,-0.02,0
3.026,-0.02,0
3.028,-0.015,0
3.03,-0.01,0
3.032,-0.005,0
3.034,-0.005,0
3.036,-0.005,0
3.038,-0.005,0
3.04,-0.005,0
3.042,-0.005,0
3.044,-0.01,0
3.046,-0.01,0
3.048,-0.01,0
3.05,-0.01,0
3.052,-0.01,0
3.054,-0.01,0
3.056,-0.01,0
3.058,-0.01,0
3.06,-0.015,0
3.062,-0.015,0
3.064,-0.02,0
3.066,-0.025,0
3.068,-0.03,0
3.07,-0.04,0
3.072,-0.045,0
3.074,-0.055,0
3.076,-0.06,0
3.078,-0.07,0
3.08,-0.075,0
3.082,-0.075,0
3.084,-0.08,0
3.086,-0.08,0
3.088,-0.075,0
3.09,-0.07,0
3.092,-0.07,0
3.094,-0.065,0
3.096,-0.06,0
3.098,-0.06,0
3.1,-0.055,0
3.102,-0.055,0
3.104,-0.06,0
3.106,-0.06,0
3.108,-0.065,0
3.11,-0.065,0
3.112,-0.07,0
3.114,-0.075,0
3.116,-0.075,0
3.118,-0.08,0
3.12,-0.085,0
3.122,-0.085,0
3.124,-0.085,0
3.126,-0.085,0
3.128,-0.085,0
3.13,-0.085,0
3.132,-0.085,0
3.134,-0.085,0
3.136,-0.085,0
3.138,-0.085,0
3.14,-0.085,0
3.142,-0.085,0
3.144,-0.08,0
3.146,-0.08,0
3.148,-0.075,0
3.15,-0.075,0
3.152,-0.07,0
3.154,-0.07,0
3.156,-0.07,0
3.158,-0.075,0
3.16,-0.08,0
3.162,-0.085,0
3.164,-0.09,0
3.166,-0.095,0
3.168,-0.095,0
3.17,-0.09,0
3.172,-0.08,0
3.174,-0.06,0
3.176,-0.03,0
3.178,0.015,0
3.18,0.07,0
3.182,0.135,0
3.184,0.215,0
3.186,0.305,0
3.188,0.395,0
3.19,0.485,0
3.192,0.56,0
3.194,0.625,0
3.196,0.665,0
3.198,0.67,0
3.2,0.65,0
3.202,0.59,0
3.204,0.505,0
3.206,0.4,0
3.208,0.28,0
3.21,0.165,0
3.212,0.055,0
3.214,-0.035,0
3.216,-0.1,0
3.218,-0.135,0
3.22,-0.15,0
3.222,-0.15,0
3.224,-0.135,0
3.226,-0.11,0
3.228,-0.09,0
3.23,-0.075,0
3.232,-0.06,0
3.234,-0.05,0
3.236,-0.045,0
3.238,-0.045,0
3.24,-0.04,0
3.242,-0.035,0
3.244,-0.03,0
3.246,-0.025,0
3.248,-0.02,0
3.25,-0.015,0
3.252,-0.015,0
3.254,-0.015,0
3.256,-0.02,0
3.258,-0.02,0
3.26,-0.025,0
3.262,-0.025,0
3.264,-0.025,0
3.266,-0.025,0
3.268,-0.025,0
3.27,-0.025,0
3.272,-0.02,0
3.274,-0.025,0
3.276,-0.025,0
3.278,-0.025,0
3.28,-0.025,0
3.282,-0.02,0
3.284,-0.02,0
3.286,-0.015,0
3.288,-0.015,0
3.29,-0.01,0
3.292,-0.01,0
3.294,-0.005,0
3.296,-0.005,0
3.298,-0.005,0
3.3,-0.005,0
3.302,-0.01,0
3.304,-0.01,0
3.306,-0.01,0
3.308,-0.005,0
3.31,-0.01,0
3.312,-0.01,0
3.314,-0.01,0
3.316,-0.01,0
3.318,-0.01,0
3.32,-0.01,0
3.322,-0.01,0
3.324,-0.01,0
3.326,-0.005,0
3.328,0,0
3.33,0.005,0
3.332,0.01,0
3.334,0.015,0
3.336,0.015,0
3.338,0.02,0
3.34,0.02,0
3.342,0.025,0
3.344,0.025,0
3.346,0.03,0
3.348,0.035,0
3.35,0.04,0
3.352,0.05,0
3.354,0.055,0
3.356,0.06,0
3.358,0.06,0
3.36,0.065,0
3.362,0.065,0
3.364,0.065,0
3.366,0.065,0
3.368,0.065,0
3.37,0.07,0
3.372,0.075,0
3.374,0.085,0
3.376,0.09,0
3.378,0.095,0
3.38,0.105,0
3.382,0.11,0
3.384,0.115,0
3.386,0.12,0
3.388,0.125,0
3.39,0.13,0
3.392,0.135,0
3.394,0.145,0
3.396,0.15,0
3.398,0.16,0
3.4,0.165,0
3.402,0.175,0
3.404,0.18,0
3.406,0.185,0
3.408,0.185,0
3.41,0.19,0
3.412,0.195,0
3.414,0.195,0
3.416,0.2,0
3.418,0.205,0
3.42,0.21,0
3.422,0.21,0
3.424,0.215,0
3.426,0.22,0
3.428,0.225,0
3.43,0.225,0
3.432,0.225,0
3.434,0.22,0
3.436,0.215,0
3.438,0.205,0
3.44,0.195,0
3.442,0.18,0
3.444,0.17,0
3.446,0.155,0
3.448,0.145,0
3.45,0.14,0
3.452,0.135,0
3.454,0.135,0
3.456,0.135,0
3.458,0.135,0
3.46,0.13,0
3.462,0.125,0
3.464,0.115,0
3.466,0.1,0
3.468,0.08,0
3.47,0.065,0
3.472,0.045,0
3.474,0.03,0
3.476,0.02,0
3.478,0.015,0
3.48,0.015,0
3.482,0.015,0
3.484,0.015,0
3.486,0.015,0
3.488,0.015,0
3.49,0.01,0
3.492,0,0
3.494,-0.005,0
3.496,-0.015,0
3.498,-0.025,0
3.5,-0.025,0
3.502,-0.03,0
3.504,-0.03,0
3.506,-0.03,0
3.508,-0.03,0
3.51,-0.03,0
3.512,-0.03,0
3.514,-0.03,0
3.516,-0.035,0
3.518,-0.035,0
3.52,-0.04,0
3.522,-0.045,0
3.524,-0.05,0
3.526,-0.05,0
3.528,-0.05,0
3.53,-0.05,0
3.532,-0.05,0
3.534,-0.05,0
3.536,-0.045,0
3.538,-0.045,0
3.54,-0.045,0
3.542,-0.05,0
3.544,-0.05,0
3.546,-0.055,0
3.548,-0.055,0
3.55,-0.055,0
3.552,-0.055,0
3.554,-0.055,0
3.556,-0.05,0
3.558,-0.05,0
3.56,-0.045,0
3.562,-0.04,0
3.564,-0.035,0
3.566,-0.03,0
3.568,-0.03,0
3.57,-0.035,0
3.572,-0.04,0
3.574,-0.045,0
3.576,-0.05,0
3.578,-0.055,0
3.58,-0.06,0
3.582,-0.06,0
3.584,-0.065,0
3.586,-0.065,0
3.588,-0.065,0
3.59,-0.065,0
3.592,-0.06,0
3.594,-0.055,0
3.596,-0.05,0
3.598,-0.05,0
3.6,-0.045,0
3.602,-0.045,0
3.604,-0.045,0
3.606,-0.045,0
3.608,-0.05,0
3.61,-0.05,0
3.612,-0.055,0
3.614,-0.055,0
3.616,-0.055,0
3.618,-0.055,0
3.62,-0.05,0
3.622,-0.04,0
3.624,-0.03,0
3.626,-0.025,0
3.628,-0.02,0
3.63,-0.015,0
3.632,-0.015,0
3.634,-0.02,0
3.636,-0.025,0
3.638,-0.03,0
3.64,-0.04,0
3.642,-0.045,0
3.644,-0.045,0
3.646,-0.045,0
3.648,-0.045,0
3.65,-0.04,0
3.652,-0.035,0
3.654,-0.03,0
3.656,-0.03,0
3.658,-0.025,0
3.66,-0.025,0
3.662,-0.025,0
3.664,-0.025,0
3.666,-0.03,0
3.668,-0.03,0
3.67,-0.035,0
3.672,-0.035,0
3.674,-0.04,0
3.676,-0.04,0
3.678,-0.045,0
3.68,-0.045,0
3.682,-0.05,0
3.684,-0.05,0
3.686,-0.055,0
3.688,-0.06,0
3.69,-0.06,0
3.692,-0.06,0
3.694,-0.06,0
3.696,-0.055,0
3.698,-0.05,0
3.7,-0.045,0
3.702,-0.04,0
3.704,-0.035,0
3.706,-0.035,0
3.708,-0.035,0
3.71,-0.04,0
3.712,-0.045,0
3.714,-0.055,0
3.716,-0.06,0
3.718,-0.07,0
3.72,-0.07,0
3.722,-0.075,0
3.724,-0.075,0
3.726,-0.07,0
3.728,-0.07,0
3.73,-0.065,0
3.732,-0.065,0
3.734,-0.065,0
3.736,-0.065,0
3.738,-0.07,0
3.74,-0.07,0
3.742,-0.075,0
3.744,-0.075,0
3.746,-0.075,0
3.748,-0.07,0
3.75,-0.07,0
3.752,-0.065,0
3.754,-0.06,0
3.756,-0.055,0
3.758,-0.055,0
3.76,-0.05,0
3.762,-0.05,0
3.764,-0.05,0
3.766,-0.05,0
3.768,-0.05,0
3.77,-0.05,0
3.772,-0.055,0
3.774,-0.055,0
3.776,-0.06,0
3.778,-0.065,0
3.78,-0.07,0
3.782,-0.075,0
3.784,-0.075,0
3.786,-0.08,0
3.788,-0.08,0
3.79,-0.075,0
3.792,-0.07,0
3.794,-0.065,0
3.796,-0.06,0
3.798,-0.055,0
3.8,-0.055,0
3.802,-0.055,0
3.804,-0.06,0
3.806,-0.065,0
3.808,-0.065,0
3.81,-0.07,0
3.812,-0.075,0
3.814,-0.08,0
3.816,-0.085,0
3.818,-0.085,0
3.82,-0.09,0
3.822,-0.09,0
3.824,-0.09,0
3.826,-0.09,0
3.828,-0.09,0
3.83,-0.09,0
3.832,-0.085,0
3.834,-0.085,0
3.836,-0.08,0
3.838,-0.08,0
3.84,-0.075,0
3.842,-0.07,0
3.844,-0.07,0
3.846,-0.065,0
3.848,-0.065,0
3.85,-0.065,0
3.852,-0.065,0
3.854,-0.065,0
3.856,-0.07,0
3.858,-0.07,0
3.86,-0.075,0
3.862,-0.075,0
3.864,-0.075,0
3.866,-0.07,0
3.868,-0.07,0
3.87,-0.065,0
3.872,-0.06,0
3.874,-0.055,0
3.876,-0.045,0
3.878,-0.04,0
3.88,-0.035,0
3.882,-0.035,0
3.884,-0.03,0
3.886,-0.025,0
3.888,-0.02,0
3.89,-0.015,0
3.892,-0.01,0
3.894,0,0
3.896,0.005,0
3.898,0.01,0
3.9,0.015,0
3.902,0.02,0
3.904,0.02,0
3.906,0.025,0
3.908,0.025,0
3.91,0.03,0
3.912,0.03,0
3.914,0.035,0
3.916,0.04,0
3.918,0.045,0
3.92,0.045,0
3.922,0.05,0
3.924,0.055,0
3.926,0.06,0
3.928,0.06,0
3.93,0.06,0
3.932,0.06,0
3.934,0.06,0
3.936,0.06,0
3.938,0.06,0
3.94,0.065,0
3.942,0.065,0
3.944,0.07,0
3.946,0.075,0
3.948,0.08,0
3.95,0.085,0
3.952,0.09,0
3.954,0.09,0
3.956,0.095,0
3.958,0.1,0
3.96,0.105,0
3.962,0.11,0
3.964,0.11,0
3.966,0.115,0
3.968,0.115,0
3.97,0.115,0
3.972,0.115,0
3.974,0.115,0
3.976,0.115,0
3.978,0.11,0
3.98,0.105,0
3.982,0.1,0
3.984,0.1,0
3.986,0.1,0
3.988,0.095,0
3.99,0.095,0
3.992,0.095,0
3.994,0.095,0
3.996,0.095,0
3.998,0.095,0
4,0.09,0
4.002,0.085,0
4.004,0.085,0
4.006,0.08,0
4.008,0.075,0
4.01,0.075,0
4.012,0.075,0
4.014,0.07,0
4.016,0.07,0
4.018,0.065,0
4.02,0.06,0
4.022,0.055,0
4.024,0.05,0
4.026,0.045,0
4.028,0.04,0
4.03,0.04,0
4.032,0.035,0
4.034,0.035,0
4.036,0.04,0
4.038,0.04,0
4.04,0.035,0
4.042,0.035,0
4.044,0.03,0
4.046,0.025,0
4.048,0.02,0
4.05,0.015,0
4.052,0.01,0
4.054,0.01,0
4.056,0.01,0
4.058,0.015,0
4.06,0.02,0
4.062,0.025,0
4.064,0.03,0
4.066,0.035,0
4.068,0.04,0
4.07,0.04,0
4.072,0.04,0
4.074,0.035,0
4.076,0.03,0
4.078,0.025,0
4.08,0.02,0
4.082,0.015,0
4.084,0.015,0
4.086,0.015,0
4.088,0.015,0
4.09,0.015,0
4.092,0.015,0
4.094,0.015,0
4.096,0.01,0
4.098,0.005,0
4.1,-0.005,0
4.102,-0.01,0
4.104,-0.015,0
4.106,-0.015,0
4.108,-0.005,0
4.11,0.015,0
4.112,0.045,0
4.114,0.09,0
4.116,0.145,0
4.118,0.21,0
4.12,0.285,0
4.122,0.365,0
4.124,0.445,0
4.126,0.52,0
4.128,0.585,0
4.13,0.63,0
4.132,0.655,0
4.134,0.655,0
4.136,0.63,0
4.138,0.57,0
4.14,0.49,0
4.142,0.39,0
4.144,0.28,0
4.146,0.165,0
4.148,0.065,0
4.15,-0.015,0
4.152,-0.075,0
4.154,-0.105,0
4.156,-0.115,0
4.158,-0.1,0
4.16,-0.08,0
4.162,-0.05,0
4.164,-0.02,0
4.166,0.005,0
4.168,0.02,0
4.17,0.03,0
4.172,0.03,0
4.174,0.03,0
4.176,0.03,0
4.178,0.03,0
4.18,0.03,0
4.182,0.035,0
4.184,0.04,0
4.186,0.04,0
4.188,0.04,0
4.19,0.04,0
4.192,0.035,0
4.194,0.03,0
4.196,0.025,0
4.198,0.02,0
4.2,0.015,0
4.202,0.015,0
4.204,0.015,0
4.206,0.015,0
4.208,0.02,0
4.21,0.02,0
4.212,0.025,0
4.214,0.025,0
4.216,0.025,0
4.218,0.03,0
4.22,0.03,0
4.222,0.025,0
4.224,0.025,0
4.226,0.025,0
4.228,0.025,0
4.23,0.025,0
4.232,0.025,0
4.234,0.025,0
4.236,0.03,0
4.238,0.03,0
4.24,0.03,0
4.242,0.03,0
4.244,0.03,0
4.246,0.03,0
4.248,0.03,0
4.25,0.03,0
4.252,0.03,0
4.254,0.035,0
4.256,0.035,0
4.258,0.04,0
4.26,0.045,0
4.262,0.05,0
4.264,0.055,0
4.266,0.06,0
4.268,0.065,0
4.27,0.065,0
4.272,0.07,0
4.274,0.065,0
4.276,0.065,0
4.278,0.06,0
4.28,0.055,0
4.282,0.05,0
4.284,0.05,0
4.286,0.05,0
4.288,0.05,0
4.29,0.055,0
4.292,0.055,0
4.294,0.06,0
4.296,0.065,0
4.298,0.07,0
4.3,0.075,0
4.302,0.08,0
4.304,0.085,0
4.306,0.095,0
4.308,0.1,0
4.31,0.11,0
4.312,0.12,0
4.314,0.125,0
4.316,0.13,0
4.318,0.135,0
4.32,0.14,0
4.322,0.14,0
4.324,0.14,0
4.326,0.145,0
4.328,0.145,0
4.33,0.15,0
4.332,0.155,0
4.334,0.165,0
4.336,0.17,0
4.338,0.18,0
4.34,0.185,0
4.342,0.19,0
4.344,0.19,0
4.346,0.19,0
4.348,0.19,0
4.35,0.19,0
4.352,0.185,0
4.354,0.185,0
4.356,0.185,0
4.358,0.185,0
4.36,0.19,0
4.362,0.195,0
4.364,0.195,0
4.366,0.195,0
4.368,0.195,0
4.37,0.19,0
4.372,0.19,0
4.374,0.18,0
4.376,0.175,0
4.378,0.165,0
4.38,0.155,0
4.382,0.145,0
4.384,0.135,0
4.386,0.125,0
4.388,0.11,0
4.39,0.1,0
4.392,0.09,0
4.394,0.075,0
4.396,0.06,0
4.398,0.05,0
4.4,0.04,0
4.402,0.03,0
4.404,0.02,0
4.406,0.01,0
4.408,0.005,0
4.41,0,0
4.412,-0.01,0
4.414,-0.015,0
4.416,-0.02,0
4.418,-0.025,0
4.42,-0.03,0
4.422,-0.04,0
4.424,-0.045,0
4.426,-0.05,0
4.428,-0.055,0
4.43,-0.055,0
4.432,-0.06,0
4.434,-0.06,0
4.436,-0.065,0
4.438,-0.065,0
4.44,-0.07,0
4.442,-0.08,0
4.444,-0.085,0
4.446,-0.095,0
4.448,-0.1,0
4.45,-0.105,0
4.452,-0.11,0
4.454,-0.11,0
4.456,-0.11,0
4.458,-0.11,0
4.46,-0.105,0
4.462,-0.105,0
4.464,-0.1,0
4.466,-0.1,0
4.468,-0.1,0
4.47,-0.1,0
4.472,-0.105,0
4.474,-0.105,0
4.476,-0.105,0
4.478,-0.105,0
4.48,-0.105,0
4.482,-0.105,0
4.484,-0.105,0
4.486,-0.105,0
4.488,-0.11,0
4.49,-0.11,0
4.492,-0.115,0
4.494,-0.115,0
4.496,-0.115,0
4.498,-0.12,0
4.5,-0.12,0
4.502,-0.115,0
4.504,-0.115,0
4.506,-0.11,0
4.508,-0.11,0
4.51,-0.105,0
4.512,-0.105,0
4.514,-0.105,0
4.516,-0.105,0
4.518,-0.105,0
4.52,-0.105,0
4.522,-0.11,0
4.524,-0.11,0
4.526,-0.11,0
4.528,-0.11,0
4.53,-0.105,0
4.532,-0.105,0
4.534,-0.1,0
4.536,-0.095,0
4.538,-0.095,0
4.54,-0.09,0
4.542,-0.09,0
4.544,-0.09,0
4.546,-0.095,0
4.548,-0.1,0
4.55,-0.1,0
4.552,-0.105,0
4.554,-0.105,0
4.556,-0.105,0
4.558,-0.105,0
4.56,-0.1,0
4.562,-0.09,0
4.564,-0.085,0
4.566,-0.08,0
4.568,-0.075,0
4.57,-0.07,0
4.572,-0.07,0
4.574,-0.075,0
4.576,-0.08,0
4.578,-0.085,0
4.58,-0.09,0
4.582,-0.095,0
4.584,-0.095,0
4.586,-0.095,0
4.588,-0.09,0
4.59,-0.09,0
4.592,-0.085,0
4.594,-0.085,0
4.596,-0.085,0
4.598,-0.085,0
4.6,-0.085,0
4.602,-0.09,0
4.604,-0.09,0
4.606,-0.09,0
4.608,-0.09,0
4.61,-0.09,0
4.612,-0.085,0
4.614,-0.08,0
4.616,-0.08,0
4.618,-0.08,0
4.62,-0.08,0
4.622,-0.085,0
4.624,-0.09,0
4.626,-0.095,0
4.628,-0.1,0
4.63,-0.1,0
4.632,-0.105,0
4.634,-0.105,0
4.636,-0.11,0
4.638,-0.105,0
4.64,-0.105,0
4.642,-0.105,0
4.644,-0.105,0
4.646,-0.1,0
4.648,-0.1,0
4.65,-0.095,0
4.652,-0.095,0
4.654,-0.095,0
4.656,-0.095,0
4.658,-0.095,0
4.66,-0.1,0
4.662,-0.1,0
4.664,-0.105,0
4.666,-0.105,0
4.668,-0.105,0
4.67,-0.11,0
4.672,-0.11,0
4.674,-0.11,0
4.676,-0.11,0
4.678,-0.11,0
4.68,-0.115,0
4.682,-0.115,0
4.684,-0.115,0
4.686,-0.12,0
4.688,-0.12,0
4.69,-0.12,0
4.692,-0.115,0
4.694,-0.11,0
4.696,-0.105,0
4.698,-0.1,0
4.7,-0.095,0
4.702,-0.09,0
4.704,-0.09,0
4.706,-0.09,0
4.708,-0.09,0
4.71,-0.095,0
4.712,-0.1,0
4.714,-0.105,0
4.716,-0.105,0
4.718,-0.11,0
4.72,-0.11,0
4.722,-0.105,0
4.724,-0.105,0
4.726,-0.1,0
4.728,-0.095,0
4.73,-0.095,0
4.732,-0.09,0
4.734,-0.09,0
4.736,-0.09,0
4.738,-0.095,0
4.74,-0.095,0
4.742,-0.1,0
4.744,-0.105,0
4.746,-0.11,0
4.748,-0.11,0
4.75,-0.115,0
4.752,-0.11,0
4.754,-0.11,0
4.756,-0.105,0
4.758,-0.1,0
4.76,-0.095,0
4.762,-0.09,0
4.764,-0.085,0
4.766,-0.085,0
4.768,-0.09,0
4.77,-0.095,0
4.772,-0.105,0
4.774,-0.11,0
4.776,-0.115,0
4.778,-0.12,0
4.78,-0.125,0
4.782,-0.12,0
4.784,-0.115,0
4.786,-0.11,0
4.788,-0.105,0
4.79,-0.095,0
4.792,-0.09,0
4.794,-0.085,0
4.796,-0.085,0
4.798,-0.085,0
4.8,-0.085,0
4.802,-0.09,0
4.804,-0.09,0
4.806,-0.095,0
4.808,-0.095,0
4.81,-0.095,0
4.812,-0.095,0
4.814,-0.095,0
4.816,-0.095,0
4.818,-0.09,0
4.82,-0.09,0
4.822,-0.09,0
4.824,-0.09,0
4.826,-0.09,0
4.828,-0.09,0
4.83,-0.09,0
4.832,-0.095,0
4.834,-0.095,0
4.836,-0.095,0
4.838,-0.1,0
4.84,-0.1,0
4.842,-0.1,0
4.844,-0.1,0
4.846,-0.095,0
4.848,-0.09,0
4.85,-0.085,0
4.852,-0.08,0
4.854,-0.075,0
4.856,-0.065,0
4.858,-0.06,0
4.86,-0.06,0
4.862,-0.055,0
4.864,-0.055,0
4.866,-0.055,0
4.868,-0.055,0
4.87,-0.055,0
4.872,-0.055,0
4.874,-0.05,0
4.876,-0.05,0
4.878,-0.05,0
4.88,-0.045,0
4.882,-0.04,0
4.884,-0.035,0
4.886,-0.035,0
4.888,-0.03,0
4.89,-0.025,0
4.892,-0.025,0
4.894,-0.025,0
4.896,-0.025,0
4.898,-0.025,0
4.9,-0.03,0
4.902,-0.03,0
4.904,-0.035,0
4.906,-0.04,0
4.908,-0.04,0
4.91,-0.045,0
4.912,-0.045,0
4.914,-0.05,0
4.916,-0.05,0
4.918,-0.055,0
4.92,-0.06,0
4.922,-0.06,0
4.924,-0.065,0
4.926,-0.07,0
4.928,-0.07,0
4.93,-0.075,0
4.932,-0.075,0
4.934,-0.075,0
4.936,-0.075,0
4.938,-0.08,0
4.94,-0.08,0
4.942,-0.08,0
4.944,-0.08,0
4.946,-0.085,0
4.948,-0.09,0
4.95,-0.09,0
4.952,-0.095,0
4.954,-0.1,0
4.956,-0.1,0
4.958,-0.105,0
4.96,-0.105,0
4.962,-0.105,0
4.964,-0.105,0
4.966,-0.105,0
4.968,-0.105,0
4.97,-0.105,0
4.972,-0.1,0
4.974,-0.1,0
4.976,-0.1,0
4.978,-0.1,0
4.98,-0.1,0
4.982,-0.095,0
4.984,-0.095,0
4.986,-0.09,0
4.988,-0.085,0
4.99,-0.085,0
4.992,-0.085,0
4.994,-0.085,0
4.996,-0.085,0
4.998,-0.085,0
5,-0.09,0
5.002,-0.095,0
5.004,-0.095,0
5.006,-0.1,0
5.008,-0.1,0
5.01,-0.105,0
5.012,-0.105,0
5.014,-0.11,0
5.016,-0.115,0
5.018,-0.115,0
5.02,-0.12,0
5.022,-0.115,0
5.024,-0.11,0
5.026,-0.09,0
5.028,-0.065,0
5.03,-0.02,0
5.032,0.03,0
5.034,0.1,0
5.036,0.175,0
5.038,0.26,0
5.04,0.35,0
5.042,0.435,0
5.044,0.51,0
5.046,0.57,0
5.048,0.605,0
5.05,0.61,0
5.052,0.59,0
5.054,0.54,0
5.056,0.465,0
5.058,0.365,0
5.06,0.26,0
5.062,0.15,0
5.064,0.045,0
5.066,-0.04,0
5.068,-0.105,0
5.07,-0.145,0
5.072,-0.165,0
5.074,-0.165,0
5.076,-0.15,0
5.078,-0.135,0
5.08,-0.115,0
5.082,-0.095,0
5.084,-0.085,0
5.086,-0.075,0
5.088,-0.075,0
5.09,-0.075,0
5.092,-0.075,0
5.094,-0.07,0
5.096,-0.07,0
5.098,-0.065,0
5.1,-0.06,0
5.102,-0.055,0
5.104,-0.05,0
5.106,-0.05,0
5.108,-0.05,0
5.11,-0.05,0
5.112,-0.05,0
5.114,-0.05,0
5.116,-0.05,0
5.118,-0.045,0
5.12,-0.045,0
5.122,-0.045,0
5.124,-0.045,0
5.126,-0.045,0
5.128,-0.045,0
5.13,-0.045,0
5.132,-0.045,0
5.134,-0.04,0
5.136,-0.04,0
5.138,-0.035,0
5.14,-0.035,0
5.142,-0.03,0
5.144,-0.03,0
5.146,-0.03,0
5.148,-0.03,0
5.15,-0.03,0
5.152,-0.03,0
5.154,-0.03,0
5.156,-0.03,0
5.158,-0.03,0
5.16,-0.025,0
5.162,-0.02,0
5.164,-0.015,0
5.166,-0.01,0
5.168,-0.005,0
5.17,-0.005,0
5.172,0,0
5.174,0,0
5.176,0,0
5.178,0,0
5.18,0,0
5.182,0,0
5.184,0,0
5.186,0,0
5.188,0.005,0
5.19,0.005,0
5.192,0.01,0
5.194,0.015,0
5.196,0.015,0
5.198,0.02,0
5.2,0.02,0
5.202,0.02,0
5.204,0.025,0
5.206,0.025,0
5.208,0.025,0
5.21,0.025,0
5.212,0.03,0
5.214,0.035,0
5.216,0.04,0
5.218,0.045,0
5.22,0.05,0
5.222,0.055,0
5.224,0.06,0
5.226,0.065,0
5.228,0.07,0
5.23,0.075,0
5.232,0.08,0
5.234,0.085,0
5.236,0.09,0
5.238,0.095,0
5.24,0.1,0
5.242,0.105,0
5.244,0.115,0
5.246,0.12,0
5.248,0.13,0
5.25,0.135,0
5.252,0.145,0
5.254,0.15,0
5.256,0.16,0
5.258,0.165,0
5.26,0.17,0
5.262,0.175,0
5.264,0.175,0
5.266,0.18,0
5.268,0.185,0
5.27,0.185,0
5.272,0.185,0
5.274,0.185,0
5.276,0.185,0
5.278,0.185,0
5.28,0.185,0
5.282,0.185,0
5.284,0.185,0
5.286,0.185,0
5.288,0.185,0
5.29,0.18,0
5.292,0.18,0
5.294,0.18,0
5.296,0.175,0
5.298,0.17,0
5.3,0.165,0
5.302,0.155,0
5.304,0.145,0
5.306,0.135,0
5.308,0.125,0
5.31,0.115,0
5.312,0.105,0
5.314,0.1,0
5.316,0.09,0
5.318,0.08,0
5.32,0.07,0
5.322,0.06,0
5.324,0.05,0
5.326,0.035,0
5.328,0.025,0
5.33,0.015,0
5.332,0.005,0
5.334,0,0
5.336,-0.005,0
5.338,-0.005,0
5.34,-0.005,0
5.342,-0.005,0
5.344,-0.005,0
5.346,-0.005,0
5.348,-0.01,0
5.35,-0.015,0
5.352,-0.015,0
5.354,-0.02,0
5.356,-0.025,0
5.358,-0.03,0
5.36,-0.035,0
5.362,-0.035,0
5.364,-0.035,0
5.366,-0.035,0
5.368,-0.03,0
5.37,-0.03,0
5.372,-0.025,0
5.374,-0.025,0
5.376,-0.025,0
5.378,-0.025,0
5.38,-0.03,0
5.382,-0.035,0
5.384,-0.04,0
5.386,-0.045,0
5.388,-0.05,0
5.39,-0.055,0
5.392,-0.06,0
5.394,-0.065,0
5.396,-0.065,0
5.398,-0.06,0
5.4,-0.06,0
5.402,-0.055,0
5.404,-0.05,0
5.406,-0.05,0
5.408,-0.045,0
5.41,-0.04,0
5.412,-0.04,0
5.414,-0.035,0
5.416,-0.035,0
5.418,-0.03,0
5.42,-0.03,0
5.422,-0.03,0
5.424,-0.03,0
5.426,-0.03,0
5.428,-0.035,0
5.43,-0.035,0
5.432,-0.04,0
5.434,-0.04,0
5.436,-0.04,0
5.438,-0.04,0
5.44,-0.035,0
5.442,-0.035,0
5.444,-0.03,0
5.446,-0.025,0
5.448,-0.02,0
5.45,-0.015,0
5.452,-0.015,0
5.454,-0.015,0
5.456,-0.01,0
5.458,-0.01,0
5.46,-0.01,0
5.462,-0.01,0
5.464,-0.01,0
5.466,-0.01,0
5.468,-0.01,0
5.47,-0.01,0
5.472,-0.01,0
5.474,-0.015,0
5.476,-0.02,0
5.478,-0.02,0
5.48,-0.025,0
5.482,-0.025,0
5.484,-0.03,0
5.486,-0.03,0
5.488,-0.025,0
5.49,-0.025,0
5.492,-0.025,0
5.494,-0.025,0
5.496,-0.025,0
5.498,-0.025,0
5.5,-0.025,0
5.502,-0.03,0
5.504,-0.03,0
5.506,-0.035,0
5.508,-0.035,0
5.51,-0.035,0
5.512,-0.035,0
5.514,-0.035,0
5.516,-0.03,0
5.518,-0.025,0
5.52,-0.02,0
5.522,-0.02,0
5.524,-0.015,0
5.526,-0.015,0
5.528,-0.015,0
5.53,-0.015,0
5.532,-0.015,0
5.534,-0.015,0
5.536,-0.02,0
5.538,-0.02,0
5.54,-0.025,0
5.542,-0.025,0
5.544,-0.03,0
5.546,-0.03,0
5.548,-0.03,0
5.55,-0.035,0
5.552,-0.035,0
5.554,-0.04,0
5.556,-0.04,0
5.558,-0.04,0
5.56,-0.04,0
5.562,-0.04,0
5.564,-0.04,0
5.566,-0.04,0
5.568,-0.035,0
5.57,-0.035,0
5.572,-0.03,0
5.574,-0.03,0
5.576,-0.03,0
5.578,-0.03,0
5.58,-0.03,0
5.582,-0.035,0
5.584,-0.04,0
5.586,-0.04,0
5.588,-0.045,0
5.59,-0.045,0
5.592,-0.045,0
5.594,-0.04,0
5.596,-0.04,0
5.598,-0.035,0
5.6,-0.035,0
5.602,-0.035,0
5.604,-0.04,0
5.606,-0.045,0
5.608,-0.055,0
5.61,-0.06,0
5.612,-0.065,0
5.614,-0.065,0
5.616,-0.065,0
5.618,-0.065,0
5.62,-0.06,0
5.622,-0.055,0
5.624,-0.05,0
5.626,-0.045,0
5.628,-0.045,0
5.63,-0.045,0
5.632,-0.045,0
5.634,-0.045,0
5.636,-0.045,0
5.638,-0.05,0
5.64,-0.05,0
5.642,-0.05,0
5.644,-0.05,0
5.646,-0.05,0
5.648,-0.05,0
5.65,-0.05,0
5.652,-0.05,0
5.654,-0.05,0
5.656,-0.05,0
5.658,-0.05,0
5.66,-0.055,0
5.662,-0.055,0
5.664,-0.055,0
5.666,-0.055,0
5.668,-0.055,0
5.67,-0.055,0
5.672,-0.055,0
5.674,-0.055,0
5.676,-0.055,0
5.678,-0.05,0
5.68,-0.05,0
5.682,-0.045,0
5.684,-0.045,0
5.686,-0.045,0
5.688,-0.045,0
5.69,-0.05,0
5.692,-0.05,0
5.694,-0.055,0
5.696,-0.055,0
5.698,-0.06,0
5.7,-0.06,0
5.702,-0.06,0
5.704,-0.06,0
5.706,-0.06,0
5.708,-0.065,0
5.71,-0.065,0
5.712,-0.065,0
5.714,-0.07,0
5.716,-0.07,0
5.718,-0.07,0
5.72,-0.075,0
5.722,-0.07,0
5.724,-0.07,0
5.726,-0.065,0
5.728,-0.06,0
5.73,-0.06,0
5.732,-0.055,0
5.734,-0.055,0
5.736,-0.06,0
5.738,-0.06,0
5.74,-0.065,0
5.742,-0.075,0
5.744,-0.08,0
5.746,-0.085,0
5.748,-0.09,0
5.75,-0.09,0
5.752,-0.085,0
5.754,-0.08,0
5.756,-0.075,0
5.758,-0.07,0
5.76,-0.065,0
5.762,-0.06,0
5.764,-0.06,0
5.766,-0.065,0
5.768,-0.065,0
5.77,-0.07,0
5.772,-0.07,0
5.774,-0.07,0
5.776,-0.07,0
5.778,-0.07,0
5.78,-0.065,0
5.782,-0.06,0
5.784,-0.055,0
5.786,-0.055,0
5.788,-0.055,0
5.79,-0.055,0
5.792,-0.055,0
5.794,-0.05,0
5.796,-0.05,0
5.798,-0.05,0
5.8,-0.045,0
5.802,-0.04,0
5.804,-0.035,0
5.806,-0.03,0
5.808,-0.025,0
5.81,-0.02,0
5.812,-0.02,0
5.814,-0.02,0
5.816,-0.02,0
5.818,-0.02,0
5.82,-0.02,0
5.822,-0.015,0
5.824,-0.005,0
5.826,0,0
5.828,0.015,0
5.83,0.025,0
5.832,0.035,0
5.834,0.045,0
5.836,0.055,0
5.838,0.065,0
5.84,0.07,0
5.842,0.075,0
5.844,0.08,0
5.846,0.085,0
5.848,0.09,0
5.85,0.09,0
5.852,0.095,0
5.854,0.1,0
5.856,0.1,0
5.858,0.1,0
5.86,0.1,0
5.862,0.095,0
5.864,0.09,0
5.866,0.085,0
5.868,0.08,0
5.87,0.075,0
5.872,0.075,0
5.874,0.075,0
5.876,0.075,0
5.878,0.08,0
5.88,0.085,0
5.882,0.085,0
5.884,0.09,0
5.886,0.09,0
5.888,0.09,0
5.89,0.09,0
5.892,0.09,0
5.894,0.09,0
5.896,0.085,0
5.898,0.085,0
5.9,0.085,0
5.902,0.085,0
5.904,0.08,0
5.906,0.08,0
5.908,0.08,0
5.91,0.075,0
5.912,0.075,0
5.914,0.07,0
5.916,0.07,0
5.918,0.07,0
5.92,0.07,0
5.922,0.07,0
5.924,0.07,0
5.926,0.07,0
5.928,0.07,0
5.93,0.07,0
5.932,0.07,0
5.934,0.065,0
5.936,0.065,0
5.938,0.06,0
5.94,0.055,0
5.942,0.055,0
5.944,0.05,0
5.946,0.045,0
5.948,0.04,0
5.95,0.035,0
5.952,0.03,0
5.954,0.03,0
5.956,0.03,0
5.958,0.04,0
5.96,0.06,0
5.962,0.085,0
5.964,0.13,0
5.966,0.18,0
5.968,0.25,0
5.97,0.325,0
5.972,0.415,0
5.974,0.505,0
5.976,0.595,0
5.978,0.675,0
5.98,0.74,0
5.982,0.78,0
5.984,0.795,0
5.986,0.775,0
5.988,0.725,0
5.99,0.645,0
5.992,0.545,0
5.994,0.43,0
5.996,0.31,0
5.998,0.195,0
6,0.1,0
6.002,0.03,0
6.004,-0.015,0
6.006,-0.035,0
6.008,-0.03,0
6.01,-0.015,0
6.012,0.01,0
6.014,0.035,0
6.016,0.06,0
6.018,0.075,0
6.02,0.085,0
6.022,0.085,0
6.024,0.085,0
6.026,0.085,0
6.028,0.08,0
6.03,0.08,0
6.032,0.085,0
6.034,0.085,0
6.036,0.085,0
6.038,0.09,0
6.04,0.085,0
6.042,0.085,0
6.044,0.08,0
6.046,0.075,0
6.048,0.075,0
6.05,0.07,0
6.052,0.065,0
6.054,0.065,0
6.056,0.065,0
6.058,0.065,0
6.06,0.06,0
6.062,0.06,0
6.064,0.06,0
6.066,0.06,0
6.068,0.06,0
6.07,0.06,0
6.072,0.065,0
6.074,0.065,0
6.076,0.07,0
6.078,0.07,0
6.08,0.075,0
6.082,0.075,0
6.084,0.075,0
6.086,0.075,0
6.088,0.075,0
6.09,0.075,0
6.092,0.075,0
6.094,0.075,0
6.096,0.075,0
6.098,0.08,0
6.1,0.085,0
6.102,0.09,0
6.104,0.095,0
6.106,0.1,0
6.108,0.105,0
6.11,0.105,0
6.112,0.105,0
6.114,0.105,0
6.116,0.105,0
6.118,0.105,0
6.12,0.105,0
6.122,0.105,0
6.124,0.105,0
6.126,0.11,0
6.128,0.11,0
6.13,0.115,0
6.132,0.12,0
6.134,0.12,0
6.136,0.12,0
6.138,0.12,0
6.14,0.12,0
6.142,0.12,0
6.144,0.12,0
6.146,0.12,0
6.148,0.12,0
6.15,0.12,0
6.152,0.125,0
6.154,0.13,0
6.156,0.14,0
6.158,0.145,0
6.16,0.15,0
6.162,0.16,0
6.164,0.165,0
6.166,0.17,0
6.168,0.175,0
6.17,0.185,0
6.172,0.19,0
6.174,0.2,0
6.176,0.205,0
6.178,0.215,0
6.18,0.22,0
6.182,0.23,0
6.184,0.235,0
6.186,0.24,0
6.188,0.245,0
6.19,0.25,0
6.192,0.255,0
6.194,0.255,0
6.196,0.26,0
6.198,0.26,0
6.2,0.265,0
6.202,0.27,0
6.204,0.27,0
6.206,0.275,0
6.208,0.275,0
6.21,0.28,0
6.212,0.28,0
6.214,0.285,0
6.216,0.285,0
6.218,0.285,0
6.22,0.285,0
6.222,0.28,0
6.224,0.275,0
6.226,0.27,0
6.228,0.26,0
6.23,0.245,0
6.232,0.235,0
6.234,0.22,0
6.236,0.21,0
6.238,0.195,0
6.24,0.185,0
6.242,0.175,0
6.244,0.165,0
6.246,0.15,0
6.248,0.14,0
6.25,0.125,0
6.252,0.11,0
6.254,0.095,0
6.256,0.085,0
6.258,0.07,0
6.26,0.065,0
6.262,0.055,0
6.264,0.05,0
6.266,0.045,0
6.268,0.04,0
6.27,0.035,0
6.272,0.025,0
6.274,0.015,0
6.276,0.005,0
6.278,-0.01,0
6.28,-0.02,0
6.282,-0.03,0
6.284,-0.035,0
6.286,-0.04,0
6.288,-0.045,0
6.29,-0.045,0
6.292,-0.045,0
6.294,-0.04,0
6.296,-0.045,0
6.298,-0.045,0
6.3,-0.045,0
6.302,-0.05,0
6.304,-0.055,0
6.306,-0.06,0
6.308,-0.06,0
6.31,-0.06,0
6.312,-0.06,0
6.314,-0.06,0
6.316,-0.06,0
6.318,-0.06,0
6.32,-0.06,0
6.322,-0.065,0
6.324,-0.07,0
6.326,-0.07,0
6.328,-0.075,0
6.33,-0.08,0
6.332,-0.08,0
6.334,-0.08,0
6.336,-0.08,0
6.338,-0.08,0
6.34,-0.075,0
6.342,-0.075,0
6.344,-0.07,0
6.346,-0.07,0
6.348,-0.07,0
6.35,-0.07,0
6.352,-0.075,0
6.354,-0.075,0
6.356,-0.075,0
6.358,-0.075,0
6.36,-0.075,0
6.362,-0.075,0
6.364,-0.075,0
6.366,-0.075,0
6.368,-0.08,0
6.37,-0.085,0
6.372,-0.085,0
6.374,-0.09,0
6.376,-0.095,0
6.378,-0.095,0
6.38,-0.1,0
6.382,-0.095,0
6.384,-0.095,0
6.386,-0.09,0
6.388,-0.09,0
6.39,-0.085,0
6.392,-0.085,0
6.394,-0.085,0
6.396,-0.085,0
6.398,-0.085,0
6.4,-0.08,0
6.402,-0.08,0
6.404,-0.08,0
6.406,-0.075,0
6.408,-0.075,0
6.41,-0.075,0
6.412,-0.07,0
6.414,-0.07,0
6.416,-0.075,0
6.418,-0.075,0
6.42,-0.08,0
6.422,-0.085,0
6.424,-0.09,0
6.426,-0.09,0
6.428,-0.095,0
6.43,-0.095,0
6.432,-0.095,0
6.434,-0.095,0
6.436,-0.09,0
6.438,-0.09,0
6.44,-0.085,0
6.442,-0.085,0
6.444,-0.085,0
6.446,-0.085,0
6.448,-0.09,0
6.45,-0.095,0
6.452,-0.1,0
6.454,-0.105,0
6.456,-0.11,0
6.458,-0.11,0
6.46,-0.115,0
6.462,-0.115,0
6.464,-0.115,0
6.466,-0.11,0
6.468,-0.11,0
6.47,-0.105,0
6.472,-0.1,0
6.474,-0.1,0
6.476,-0.095,0
6.478,-0.095,0
6.48,-0.095,0
6.482,-0.1,0
6.484,-0.1,0
6.486,-0.1,0
6.488,-0.1,0
6.49,-0.1,0
6.492,-0.1,0
6.494,-0.1,0
6.496,-0.1,0
6.498,-0.1,0
6.5,-0.105,0
6.502,-0.105,0
6.504,-0.11,0
6.506,-0.115,0
6.508,-0.12,0
6.51,-0.125,0
6.512,-0.13,0
6.514,-0.13,0
6.516,-0.13,0
6.518,-0.135,0
6.52,-0.135,0
6.522,-0.135,0
6.524,-0.13,0
6.526,-0.13,0
6.528,-0.13,0
6.53,-0.125,0
6.532,-0.125,0
6.534,-0.12,0
6.536,-0.12,0
6.538,-0.12,0
6.54,-0.12,0
6.542,-0.125,0
6.544,-0.125,0
6.546,-0.13,0
6.548,-0.135,0
6.55,-0.145,0
6.552,-0.145,0
6.554,-0.15,0
6.556,-0.15,0
6.558,-0.15,0
6.56,-0.145,0
6.562,-0.14,0
6.564,-0.14,0
6.566,-0.135,0
6.568,-0.135,0
6.57,-0.13,0
6.572,-0.13,0
6.574,-0.13,0
6.576,-0.13,0
6.578,-0.13,0
6.58,-0.13,0
6.582,-0.13,0
6.584,-0.13,0
6.586,-0.13,0
6.588,-0.13,0
6.59,-0.13,0
6.592,-0.13,0
6.594,-0.13,0
6.596,-0.13,0
6.598,-0.13,0
6.6,-0.13,0
6.602,-0.125,0
6.604,-0.125,0
6.606,-0.12,0
6.608,-0.12,0
6.61,-0.12,0
6.612,-0.12,0
6.614,-0.125,0
6.616,-0.125,0
6.618,-0.13,0
6.62,-0.13,0
6.622,-0.13,0
6.624,-0.13,0
6.626,-0.13,0
6.628,-0.125,0
6.63,-0.12,0
6.632,-0.115,0
6.634,-0.11,0
6.636,-0.11,0
6.638,-0.105,0
6.64,-0.105,0
6.642,-0.105,0
6.644,-0.105,0
6.646,-0.105,0
6.648,-0.11,0
6.65,-0.11,0
6.652,-0.11,0
6.654,-0.115,0
6.656,-0.115,0
6.658,-0.115,0
6.66,-0.115,0
6.662,-0.115,0
6.664,-0.11,0
6.666,-0.105,0
6.668,-0.1,0
6.67,-0.095,0
6.672,-0.09,0
6.674,-0.09,0
6.676,-0.09,0
6.678,-0.09,0
6.68,-0.09,0
6.682,-0.095,0
6.684,-0.095,0
6.686,-0.095,0
6.688,-0.095,0
6.69,-0.095,0
6.692,-0.09,0
6.694,-0.085,0
6.696,-0.085,0
6.698,-0.085,0
6.7,-0.085,0
6.702,-0.085,0
6.704,-0.085,0
6.706,-0.08,0
6.708,-0.08,0
6.71,-0.075,0
6.712,-0.065,0
6.714,-0.06,0
6.716,-0.05,0
6.718,-0.04,0
6.72,-0.035,0
6.722,-0.03,0
6.724,-0.025,0
6.726,-0.025,0
6.728,-0.025,0
6.73,-0.03,0
6.732,-0.035,0
6.734,-0.04,0
6.736,-0.05,0
6.738,-0.06,0
6.74,-0.065,0
6.742,-0.075,0
6.744,-0.08,0
6.746,-0.09,0
6.748,-0.095,0
6.75,-0.1,0
6.752,-0.1,0
6.754,-0.105,0
6.756,-0.105,0
6.758,-0.11,0
6.76,-0.115,0
6.762,-0.115,0
6.764,-0.12,0
6.766,-0.125,0
6.768,-0.125,0
6.77,-0.125,0
6.772,-0.125,0
6.774,-0.12,0
6.776,-0.115,0
6.778,-0.115,0
6.78,-0.11,0
6.782,-0.105,0
6.784,-0.105,0
6.786,-0.105,0
6.788,-0.105,0
6.79,-0.11,0
6.792,-0.11,0
6.794,-0.115,0
6.796,-0.12,0
6.798,-0.12,0
6.8,-0.125,0
6.802,-0.13,0
6.804,-0.13,0
6.806,-0.135,0
6.808,-0.135,0
6.81,-0.13,0
6.812,-0.13,0
6.814,-0.125,0
6.816,-0.12,0
6.818,-0.12,0
6.82,-0.115,0
6.822,-0.115,0
6.824,-0.115,0
6.826,-0.12,0
6.828,-0.125,0
6.83,-0.13,0
6.832,-0.13,0
6.834,-0.135,0
6.836,-0.135,0
6.838,-0.135,0
6.84,-0.135,0
6.842,-0.135,0
6.844,-0.135,0
6.846,-0.13,0
6.848,-0.125,0
6.85,-0.11,0
6.852,-0.08,0
6.854,-0.04,0
6.856,0.015,0
6.858,0.085,0
6.86,0.17,0
6.862,0.255,0
6.864,0.345,0
6.866,0.425,0
6.868,0.49,0
6.87,0.53,0
6.872,0.55,0
6.874,0.54,0
6.876,0.5,0
6.878,0.44,0
6.88,0.355,0
6.882,0.26,0
6.884,0.16,0
6.886,0.06,0
6.888,-0.03,0
6.89,-0.1,0
6.892,-0.155,0
6.894,-0.19,0
6.896,-0.205,0
6.898,-0.2,0
6.9,-0.185,0
6.902,-0.16,0
6.904,-0.13,0
6.906,-0.105,0
6.908,-0.085,0
6.91,-0.075,0
6.912,-0.065,0
6.914,-0.065,0
6.916,-0.065,0
6.918,-0.065,0
6.92,-0.065,0
6.922,-0.06,0
6.924,-0.06,0
6.926,-0.06,0
6.928,-0.06,0
6.93,-0.065,0
6.932,-0.07,0
6.934,-0.075,0
6.936,-0.08,0
6.938,-0.085,0
6.94,-0.085,0
6.942,-0.085,0
6.944,-0.08,0
6.946,-0.075,0
6.948,-0.065,0
6.95,-0.06,0
6.952,-0.055,0
6.954,-0.05,0
6.956,-0.05,0
6.958,-0.05,0
6.96,-0.05,0
6.962,-0.055,0
6.964,-0.055,0
6.966,-0.055,0
6.968,-0.055,0
6.97,-0.055,0
6.972,-0.05,0
6.974,-0.05,0
6.976,-0.045,0
6.978,-0.045,0
6.98,-0.045,0
6.982,-0.045,0
6.984,-0.045,0
6.986,-0.045,0
6.988,-0.045,0
6.99,-0.045,0
6.992,-0.045,0
6.994,-0.045,0
6.996,-0.04,0
6.998,-0.04,0
7,-0.035,0
7.002,-0.03,0
7.004,-0.02,0
7.006,-0.015,0
7.008,-0.01,0
7.01,-0.005,0
7.012,0,0
7.014,0,0
7.016,0.005,0
7.018,0.005,0
7.02,0.01,0
7.022,0.01,0
7.024,0.015,0
7.026,0.02,0
7.028,0.02,0
7.03,0.025,0
7.032,0.03,0
7.034,0.03,0
7.036,0.035,0
7.038,0.035,0
7.04,0.03,0
7.042,0.03,0
7.044,0.03,0
7.046,0.03,0
7.048,0.035,0
7.05,0.04,0
7.052,0.045,0
7.054,0.055,0
7.056,0.065,0
7.058,0.075,0
7.06,0.085,0
7.062,0.095,0
7.064,0.1,0
7.066,0.11,0
7.068,0.115,0
7.07,0.12,0
7.072,0.125,0
7.074,0.13,0
7.076,0.135,0
7.078,0.14,0
7.08,0.145,0
7.082,0.15,0
7.084,0.155,0
7.086,0.16,0
7.088,0.16,0
7.09,0.16,0
7.092,0.16,0
7.094,0.16,0
7.096,0.16,0
7.098,0.16,0
7.1,0.16,0
7.102,0.165,0
7.104,0.165,0
7.106,0.17,0
7.108,0.175,0
7.11,0.175,0
7.112,0.18,0
7.114,0.175,0
7.116,0.175,0
7.118,0.17,0
7.12,0.165,0
7.122,0.155,0
7.124,0.15,0
7.126,0.14,0
7.128,0.13,0
7.13,0.12,0
7.132,0.11,0
7.134,0.1,0
7.136,0.09,0
7.138,0.08,0
7.14,0.07,0
7.142,0.06,0
7.144,0.055,0
7.146,0.05,0
7.148,0.045,0
7.15,0.04,0
7.152,0.035,0
7.154,0.03,0
7.156,0.025,0
7.158,0.02,0
7.16,0.01,0
7.162,0,0
7.164,-0.01,0
7.166,-0.02,0
7.168,-0.025,0
7.17,-0.03,0
7.172,-0.035,0
7.174,-0.04,0
7.176,-0.04,0
7.178,-0.04,0
7.18,-0.04,0
7.182,-0.035,0
7.184,-0.035,0
7.186,-0.035,0
7.188,-0.04,0
7.19,-0.04,0
7.192,-0.04,0
7.194,-0.045,0
7.196,-0.05,0
7.198,-0.05,0
7.2,-0.05,0
7.202,-0.055,0
7.204,-0.055,0
7.206,-0.055,0
7.208,-0.055,0
7.21,-0.055,0
7.212,-0.055,0
7.214,-0.05,0
7.216,-0.05,0
7.218,-0.05,0
7.22,-0.045,0
7.222,-0.045,0
7.224,-0.045,0
7.226,-0.045,0
7.228,-0.04,0
7.23,-0.04,0
7.232,-0.04,0
7.234,-0.04,0
7.236,-0.04,0
7.238,-0.04,0
7.24,-0.04,0
7.242,-0.04,0
7.244,-0.035,0
7.246,-0.035,0
7.248,-0.035,0
7.25,-0.035,0
7.252,-0.04,0
7.254,-0.04,0
7.256,-0.04,0
7.258,-0.045,0
7.26,-0.045,0
7.262,-0.045,0
7.264,-0.045,0
7.266,-0.045,0
7.268,-0.04,0
7.27,-0.035,0
7.272,-0.035,0
7.274,-0.03,0
7.276,-0.025,0
7.278,-0.025,0
7.28,-0.02,0
7.282,-0.02,0
7.284,-0.02,0
7.286,-0.025,0
7.288,-0.025,0
7.29,-0.03,0
7.292,-0.035,0
7.294,-0.035,0
7.296,-0.04,0
7.298,-0.04,0
7.3,-0.04,0
7.302,-0.04,0
7.304,-0.035,0
7.306,-0.035,0
7.308,-0.025,0
7.31,-0.02,0
7.312,-0.015,0
7.314,-0.015,0
7.316,-0.015,0
7.318,-0.015,0
7.32,-0.015,0
7.322,-0.02,0
7.324,-0.025,0
7.326,-0.03,0
7.328,-0.03,0
7.33,-0.035,0
7.332,-0.035,0
7.334,-0.03,0
7.336,-0.03,0
7.338,-0.03,0
7.34,-0.025,0
7.342,-0.025,0
7.344,-0.025,0
7.346,-0.025,0
7.348,-0.025,0
7.35,-0.025,0
7.352,-0.025,0
7.354,-0.025,0
7.356,-0.03,0
7.358,-0.03,0
7.36,-0.03,0
7.362,-0.035,0
7.364,-0.035,0
7.366,-0.04,0
7.368,-0.04,0
7.37,-0.045,0
7.372,-0.045,0
7.374,-0.045,0
7.376,-0.045,0
7.378,-0.045,0
7.38,-0.045,0
7.382,-0.045,0
7.384,-0.05,0
7.386,-0.05,0
7.388,-0.05,0
7.39,-0.05,0
7.392,-0.05,0
7.394,-0.05,0
7.396,-0.045,0
7.398,-0.045,0
7.4,-0.04,0
7.402,-0.04,0
7.404,-0.04,0
7.406,-0.04,0
7.408,-0.04,0
7.41,-0.045,0
7.412,-0.045,0
7.414,-0.045,0
7.416,-0.045,0
7.418,-0.045,0
7.42,-0.04,0
7.422,-0.035,0
7.424,-0.03,0
7.426,-0.03,0
7.428,-0.025,0
7.43,-0.025,0
7.432,-0.025,0
7.434,-0.03,0
7.436,-0.03,0
7.438,-0.035,0
7.44,-0.04,0
7.442,-0.04,0
7.444,-0.045,0
7.446,-0.04,0
7.448,-0.04,0
7.45,-0.035,0
7.452,-0.03,0
7.454,-0.03,0
7.456,-0.03,0
7.458,-0.03,0
7.46,-0.035,0
7.462,-0.04,0
7.464,-0.045,0
7.466,-0.055,0
7.468,-0.06,0
7.47,-0.065,0
7.472,-0.07,0
7.474,-0.07,0
7.476,-0.07,0
7.478,-0.065,0
7.48,-0.06,0
7.482,-0.055,0
7.484,-0.05,0
7.486,-0.045,0
7.488,-0.045,0
7.49,-0.04,0
7.492,-0.04,0
7.494,-0.035,0
7.496,-0.035,0
7.498,-0.035,0
7.5,-0.035,0
7.502,-0.035,0
7.504,-0.035,0
7.506,-0.04,0
7.508,-0.04,0
7.51,-0.045,0
7.512,-0.045,0
7.514,-0.05,0
7.516,-0.05,0
7.518,-0.05,0
7.52,-0.05,0
7.522,-0.05,0
7.524,-0.05,0
7.526,-0.05,0
7.528,-0.05,0
7.53,-0.05,0
7.532,-0.05,0
7.534,-0.05,0
7.536,-0.05,0
7.538,-0.05,0
7.54,-0.055,0
7.542,-0.055,0
7.544,-0.05,0
7.546,-0.045,0
7.548,-0.04,0
7.55,-0.035,0
7.552,-0.025,0
7.554,-0.015,0
7.556,-0.01,0
7.558,-0.005,0
7.56,-0.005,0
7.562,-0.01,0
7.564,-0.01,0
7.566,-0.015,0
7.568,-0.02,0
7.57,-0.025,0
7.572,-0.03,0
7.574,-0.025,0
7.576,-0.02,0
7.578,-0.015,0
7.58,-0.005,0
7.582,0.005,0
7.584,0.01,0
7.586,0.02,0
7.588,0.02,0
7.59,0.025,0
7.592,0.025,0
7.594,0.02,0
7.596,0.02,0
7.598,0.015,0
7.6,0.015,0
7.602,0.015,0
7.604,0.01,0
7.606,0.01,0
7.608,0.005,0
7.61,0,0
7.612,-0.01,0
7.614,-0.02,0
7.616,-0.03,0
7.618,-0.04,0
7.62,-0.05,0
7.622,-0.055,0
7.624,-0.06,0
7.626,-0.06,0
7.628,-0.06,0
7.63,-0.06,0
7.632,-0.055,0
7.634,-0.055,0
7.636,-0.055,0
7.638,-0.055,0
7.64,-0.055,0
7.642,-0.055,0
7.644,-0.06,0
7.646,-0.06,0
7.648,-0.06,0
7.65,-0.06,0
7.652,-0.06,0
7.654,-0.06,0
7.656,-0.06,0
7.658,-0.06,0
7.66,-0.06,0
7.662,-0.065,0
7.664,-0.07,0
7.666,-0.07,0
7.668,-0.075,0
7.67,-0.075,0
7.672,-0.08,0
7.674,-0.075,0
7.676,-0.075,0
7.678,-0.07,0
7.68,-0.07,0
7.682,-0.065,0
7.684,-0.065,0
7.686,-0.065,0
7.688,-0.065,0
7.69,-0.065,0
7.692,-0.065,0
7.694,-0.065,0
7.696,-0.065,0
7.698,-0.07,0
7.7,-0.07,0
7.702,-0.08,0
7.704,-0.085,0
7.706,-0.095,0
7.708,-0.1,0
7.71,-0.105,0
7.712,-0.105,0
7.714,-0.1,0
7.716,-0.085,0
7.718,-0.055,0
7.72,-0.02,0
7.722,0.03,0
7.724,0.09,0
7.726,0.15,0
7.728,0.22,0
7.73,0.29,0
7.732,0.355,0
7.734,0.415,0
7.736,0.46,0
7.738,0.49,0
7.74,0.495,0
7.742,0.485,0
7.744,0.445,0
7.746,0.385,0
7.748,0.305,0
7.75,0.215,0
7.752,0.12,0
7.754,0.03,0
7.756,-0.05,0
7.758,-0.11,0
7.76,-0.15,0
7.762,-0.165,0
7.764,-0.16,0
7.766,-0.145,0
7.768,-0.12,0
7.77,-0.09,0
7.772,-0.07,0
7.774,-0.055,0
7.776,-0.045,0
7.778,-0.05,0
7.78,-0.055,0
7.782,-0.06,0
7.784,-0.065,0
7.786,-0.065,0
7.788,-0.06,0
7.79,-0.055,0
7.792,-0.045,0
7.794,-0.04,0
7.796,-0.035,0
7.798,-0.04,0
7.8,-0.045,0
7.802,-0.055,0
7.804,-0.065,0
7.806,-0.07,0
7.808,-0.08,0
7.81,-0.08,0
7.812,-0.08,0
7.814,-0.075,0
7.816,-0.065,0
7.818,-0.06,0
7.82,-0.05,0
7.822,-0.045,0
7.824,-0.045,0
7.826,-0.04,0
7.828,-0.045,0
7.83,-0.045,0
7.832,-0.045,0
7.834,-0.045,0
7.836,-0.045,0
7.838,-0.045,0
7.84,-0.04,0
7.842,-0.035,0
7.844,-0.035,0
7.846,-0.03,0
7.848,-0.03,0
7.85,-0.03,0
7.852,-0.03,0
7.854,-0.025,0
7.856,-0.015,0
7.858,-0.005,0
7.86,0.005,0
7.862,0.02,0
7.864,0.035,0
7.866,0.05,0
7.868,0.07,0
7.87,0.08,0
7.872,0.09,0
7.874,0.1,0
7.876,0.11,0
7.878,0.115,0
7.88,0.125,0
7.882,0.13,0
7.884,0.135,0
7.886,0.14,0
7.888,0.145,0
7.89,0.145,0
7.892,0.15,0
7.894,0.15,0
7.896,0.155,0
7.898,0.16,0
7.9,0.17,0
7.902,0.175,0
7.904,0.185,0
7.906,0.195,0
7.908,0.205,0
7.91,0.21,0
7.912,0.215,0
7.914,0.22,0
7.916,0.22,0
7.918,0.215,0
7.92,0.215,0
7.922,0.215,0
7.924,0.22,0
7.926,0.225,0
7.928,0.235,0
7.93,0.245,0
7.932,0.26,0
7.934,0.27,0
7.936,0.28,0
7.938,0.29,0
7.94,0.3,0
7.942,0.305,0
7.944,0.31,0
7.946,0.31,0
7.948,0.315,0
7.95,0.315,0
7.952,0.32,0
7.954,0.32,0
7.956,0.325,0
7.958,0.325,0
7.96,0.325,0
7.962,0.325,0
7.964,0.325,0
7.966,0.32,0
7.968,0.32,0
7.97,0.32,0
7.972,0.32,0
7.974,0.32,0
7.976,0.325,0
7.978,0.325,0
7.98,0.325,0
7.982,0.325,0
7.984,0.32,0
7.986,0.315,0
7.988,0.31,0
7.99,0.3,0
7.992,0.29,0
7.994,0.275,0
7.996,0.265,0
7.998,0.255,0
8,0.245,0
8.002,0.235,0
8.004,0.23,0
8.006,0.22,0
8.008,0.21,0
8.01,0.2,0
8.012,0.19,0
8.014,0.18,0
8.016,0.17,0
8.018,0.16,0
8.02,0.155,0
8.022,0.15,0
8.024,0.145,0
8.026,0.14,0
8.028,0.135,0
8.03,0.13,0
8.032,0.13,0
8.034,0.125,0
8.036,0.12,0
8.038,0.115,0
8.04,0.115,0
8.042,0.11,0
8.044,0.11,0
8.046,0.11,0
8.048,0.105,0
8.05,0.105,0
8.052,0.105,0
8.054,0.1,0
8.056,0.095,0
8.058,0.09,0
8.06,0.08,0
8.062,0.075,0
8.064,0.07,0
8.066,0.065,0
8.068,0.065,0
8.07,0.065,0
8.072,0.07,0
8.074,0.075,0
8.076,0.08,0
8.078,0.085,0
8.08,0.085,0
8.082,0.085,0
8.084,0.08,0
8.086,0.075,0
8.088,0.07,0
8.09,0.065,0
8.092,0.06,0
8.094,0.06,0
8.096,0.06,0
8.098,0.06,0
8.1,0.065,0
8.102,0.065,0
8.104,0.065,0
8.106,0.065,0
8.108,0.065,0
8.11,0.065,0
8.112,0.065,0
8.114,0.06,0
8.116,0.06,0
8.118,0.06,0
8.12,0.06,0
8.122,0.06,0
8.124,0.06,0
8.126,0.06,0
8.128,0.06,0
8.13,0.055,0
8.132,0.055,0
8.134,0.055,0
8.136,0.055,0
8.138,0.05,0
8.14,0.05,0
8.142,0.05,0
8.144,0.05,0
8.146,0.05,0
8.148,0.05,0
8.15,0.045,0
8.152,0.045,0
8.154,0.045,0
8.156,0.04,0
8.158,0.04,0
8.16,0.04,0
8.162,0.04,0
8.164,0.04,0
8.166,0.04,0
8.168,0.04,0
8.17,0.04,0
8.172,0.035,0
8.174,0.035,0
8.176,0.03,0
8.178,0.03,0
8.18,0.025,0
8.182,0.02,0
8.184,0.02,0
8.186,0.015,0
8.188,0.015,0
8.19,0.02,0
8.192,0.02,0
8.194,0.02,0
8.196,0.025,0
8.198,0.025,0
8.2,0.025,0
8.202,0.025,0
8.204,0.02,0
8.206,0.015,0
8.208,0.01,0
8.21,0.005,0
8.212,0,0
8.214,-0.005,0
8.216,-0.005,0
8.218,-0.01,0
8.22,-0.01,0
8.222,-0.01,0
8.224,-0.005,0
8.226,-0.005,0
8.228,-0.005,0
8.23,-0.005,0
8.232,-0.005,0
8.234,-0.005,0
8.236,-0.01,0
8.238,-0.01,0
8.24,-0.01,0
8.242,-0.015,0
8.244,-0.015,0
8.246,-0.02,0
8.248,-0.02,0
8.25,-0.02,0
8.252,-0.02,0
8.254,-0.02,0
8.256,-0.02,0
8.258,-0.015,0
8.26,-0.015,0
8.262,-0.015,0
8.264,-0.015,0
8.266,-0.015,0
8.268,-0.02,0
8.27,-0.02,0
8.272,-0.02,0
8.274,-0.025,0
8.276,-0.03,0
8.278,-0.03,0
8.28,-0.035,0
8.282,-0.04,0
8.284,-0.045,0
8.286,-0.05,0
8.288,-0.05,0
8.29,-0.05,0
8.292,-0.045,0
8.294,-0.04,0
8.296,-0.035,0
8.298,-0.03,0
8.3,-0.025,0
8.302,-0.025,0
8.304,-0.025,0
8.306,-0.03,0
8.308,-0.04,0
8.31,-0.05,0
8.312,-0.06,0
8.314,-0.065,0
8.316,-0.07,0
8.318,-0.075,0
8.32,-0.07,0
8.322,-0.065,0
8.324,-0.06,0
8.326,-0.05,0
8.328,-0.045,0
8.33,-0.045,0
8.332,-0.045,0
8.334,-0.045,0
8.336,-0.05,0
8.338,-0.055,0
8.34,-0.06,0
8.342,-0.065,0
8.344,-0.07,0
8.346,-0.075,0
8.348,-0.08,0
8.35,-0.08,0
8.352,-0.085,0
8.354,-0.085,0
8.356,-0.085,0
8.358,-0.085,0
8.36,-0.085,0
8.362,-0.085,0
8.364,-0.085,0
8.366,-0.08,0
8.368,-0.075,0
8.37,-0.07,0
8.372,-0.07,0
8.374,-0.065,0
8.376,-0.065,0
8.378,-0.07,0
8.38,-0.07,0
8.382,-0.07,0
8.384,-0.07,0
8.386,-0.07,0
8.388,-0.07,0
8.39,-0.065,0
8.392,-0.06,0
8.394,-0.055,0
8.396,-0.05,0
8.398,-0.045,0
8.4,-0.04,0
8.402,-0.04,0
8.404,-0.045,0
8.406,-0.05,0
8.408,-0.055,0
8.41,-0.06,0
8.412,-0.065,0
8.414,-0.07,0
8.416,-0.07,0
8.418,-0.065,0
8.42,-0.06,0
8.422,-0.055,0
8.424,-0.045,0
8.426,-0.03,0
8.428,-0.02,0
8.43,-0.015,0
8.432,-0.005,0
8.434,-0.005,0
8.436,-0.005,0
8.438,-0.01,0
8.44,-0.015,0
8.442,-0.02,0
8.444,-0.03,0
8.446,-0.035,0
8.448,-0.04,0
8.45,-0.045,0
8.452,-0.045,0
8.454,-0.045,0
8.456,-0.045,0
8.458,-0.05,0
8.46,-0.05,0
8.462,-0.055,0
8.464,-0.06,0
8.466,-0.065,0
8.468,-0.075,0
8.47,-0.085,0
8.472,-0.09,0
8.474,-0.1,0
8.476,-0.105,0
8.478,-0.105,0
8.48,-0.11,0
8.482,-0.11,0
8.484,-0.11,0
8.486,-0.11,0
8.488,-0.11,0
8.49,-0.11,0
8.492,-0.105,0
8.494,-0.105,0
8.496,-0.105,0
8.498,-0.1,0
8.5,-0.1,0
8.502,-0.1,0
8.504,-0.105,0
8.506,-0.105,0
8.508,-0.11,0
8.51,-0.115,0
8.512,-0.125,0
8.514,-0.13,0
8.516,-0.13,0
8.518,-0.13,0
8.52,-0.13,0
8.522,-0.13,0
8.524,-0.125,0
8.526,-0.12,0
8.528,-0.115,0
8.53,-0.11,0
8.532,-0.11,0
8.534,-0.11,0
8.536,-0.11,0
8.538,-0.115,0
8.54,-0.12,0
8.542,-0.125,0
8.544,-0.13,0
8.546,-0.13,0
8.548,-0.135,0
8.55,-0.14,0
8.552,-0.14,0
8.554,-0.145,0
8.556,-0.145,0
8.558,-0.145,0
8.56,-0.14,0
8.562,-0.13,0
8.564,-0.115,0
8.566,-0.085,0
8.568,-0.045,0
8.57,0.005,0
8.572,0.07,0
8.574,0.145,0
8.576,0.225,0
8.578,0.305,0
8.58,0.38,0
8.582,0.44,0
8.584,0.475,0
8.586,0.49,0
8.588,0.475,0
8.59,0.43,0
8.592,0.36,0
8.594,0.275,0
8.596,0.175,0
8.598,0.08,0
8.6,-0.015,0
8.602,-0.09,0
8.604,-0.15,0
8.606,-0.185,0
8.608,-0.205,0
8.61,-0.205,0
8.612,-0.195,0
8.614,-0.175,0
8.616,-0.155,0
8.618,-0.14,0
8.62,-0.125,0
8.622,-0.115,0
8.624,-0.11,0
8.626,-0.105,0
8.628,-0.1,0
8.63,-0.1,0
8.632,-0.1,0
8.634,-0.095,0
8.636,-0.095,0
8.638,-0.095,0
8.64,-0.095,0
8.642,-0.095,0
8.644,-0.1,0
8.646,-0.1,0
8.648,-0.105,0
8.65,-0.105,0
8.652,-0.105,0
8.654,-0.105,0
8.656,-0.1,0
8.658,-0.09,0
8.66,-0.085,0
8.662,-0.075,0
8.664,-0.07,0
8.666,-0.065,0
8.668,-0.06,0
8.67,-0.06,0
8.672,-0.065,0
8.674,-0.065,0
8.676,-0.07,0
8.678,-0.075,0
8.68,-0.08,0
8.682,-0.08,0
8.684,-0.075,0
8.686,-0.07,0
8.688,-0.065,0
8.69,-0.06,0
8.692,-0.05,0
8.694,-0.045,0
8.696,-0.04,0
8.698,-0.04,0
8.7,-0.04,0
8.702,-0.045,0
8.704,-0.05,0
8.706,-0.055,0
8.708,-0.06,0
8.71,-0.065,0
8.712,-0.065,0
8.714,-0.065,0
8.716,-0.065,0
8.718,-0.06,0
8.72,-0.055,0
8.722,-0.05,0
8.724,-0.05,0
8.726,-0.045,0
8.728,-0.045,0
8.73,-0.045,0
8.732,-0.045,0
8.734,-0.04,0
8.736,-0.035,0
8.738,-0.035,0
8.74,-0.025,0
8.742,-0.02,0
8.744,-0.015,0
8.746,-0.01,0
8.748,-0.005,0
8.75,-0.005,0
8.752,0,0
8.754,0,0
8.756,0.005,0
8.758,0.01,0
8.76,0.015,0
8.762,0.02,0
8.764,0.025,0
8.766,0.03,0
8.768,0.035,0
8.77,0.04,0
8.772,0.04,0
8.774,0.045,0
8.776,0.045,0
8.778,0.055,0
8.78,0.06,0
8.782,0.07,0
8.784,0.085,0
8.786,0.1,0
8.788,0.11,0
8.79,0.12,0
8.792,0.13,0
8.794,0.135,0
8.796,0.135,0
8.798,0.135,0
8.8,0.13,0
8.802,0.13,0
8.804,0.13,0
8.806,0.13,0
8.808,0.135,0
8.81,0.14,0
8.812,0.145,0
8.814,0.15,0
8.816,0.15,0
8.818,0.145,0
8.82,0.14,0
8.822,0.135,0
8.824,0.13,0
8.826,0.125,0
8.828,0.125,0
8.83,0.12,0
8.832,0.12,0
8.834,0.12,0
8.836,0.12,0
8.838,0.115,0
8.84,0.105,0
8.842,0.095,0
8.844,0.08,0
8.846,0.065,0
8.848,0.05,0
8.85,0.035,0
8.852,0.025,0
8.854,0.015,0
8.856,0.005,0
8.858,0,0
8.86,-0.005,0
8.862,-0.01,0
8.864,-0.015,0
8.866,-0.02,0
8.868,-0.03,0
8.87,-0.035,0
8.872,-0.04,0
8.874,-0.045,0
8.876,-0.055,0
8.878,-0.06,0
8.88,-0.065,0
8.882,-0.075,0
8.884,-0.08,0
8.886,-0.085,0
8.888,-0.09,0
8.89,-0.09,0
8.892,-0.09,0
8.894,-0.09,0
8.896,-0.09,0
8.898,-0.085,0
8.9,-0.085,0
8.902,-0.085,0
8.904,-0.09,0
8.906,-0.09,0
8.908,-0.095,0
8.91,-0.1,0
8.912,-0.105,0
8.914,-0.105,0
8.916,-0.11,0
8.918,-0.105,0
8.92,-0.105,0
8.922,-0.1,0
8.924,-0.09,0
8.926,-0.085,0
8.928,-0.08,0
8.93,-0.08,0
8.932,-0.08,0
8.934,-0.085,0
8.936,-0.085,0
8.938,-0.09,0
8.94,-0.095,0
8.942,-0.1,0
8.944,-0.1,0
8.946,-0.095,0
8.948,-0.09,0
8.95,-0.085,0
8.952,-0.08,0
8.954,-0.07,0
8.956,-0.065,0
8.958,-0.065,0
8.96,-0.065,0
8.962,-0.07,0
8.964,-0.08,0
8.966,-0.085,0
8.968,-0.095,0
8.97,-0.1,0
8.972,-0.105,0
8.974,-0.105,0
8.976,-0.105,0
8.978,-0.1,0
8.98,-0.09,0
8.982,-0.085,0
8.984,-0.075,0
8.986,-0.07,0
8.988,-0.065,0
8.99,-0.065,0
8.992,-0.065,0
8.994,-0.07,0
8.996,-0.07,0
8.998,-0.07,0
9,-0.075,0
9.002,-0.075,0
9.004,-0.075,0
9.006,-0.08,0
9.008,-0.08,0
9.01,-0.08,0
9.012,-0.08,0
9.014,-0.08,0
9.016,-0.08,0
9.018,-0.08,0
9.02,-0.08,0
9.022,-0.075,0
9.024,-0.07,0
9.026,-0.065,0
9.028,-0.065,0
9.03,-0.06,0
9.032,-0.055,0
9.034,-0.055,0
9.036,-0.055,0
9.038,-0.055,0
9.04,-0.055,0
9.042,-0.055,0
9.044,-0.055,0
9.046,-0.055,0
9.048,-0.055,0
9.05,-0.05,0
9.052,-0.05,0
9.054,-0.05,0
9.056,-0.055,0
9.058,-0.055,0
9.06,-0.055,0
9.062,-0.06,0
9.064,-0.06,0
9.066,-0.065,0
9.068,-0.065,0
9.07,-0.07,0
9.072,-0.075,0
9.074,-0.075,0
9.076,-0.08,0
9.078,-0.085,0
9.08,-0.085,0
9.082,-0.09,0
9.084,-0.09,0
9.086,-0.09,0
9.088,-0.09,0
9.09,-0.085,0
9.092,-0.085,0
9.094,-0.08,0
9.096,-0.08,0
9.098,-0.08,0
9.1,-0.08,0
9.102,-0.075,0
9.104,-0.075,0
9.106,-0.075,0
9.108,-0.07,0
9.11,-0.07,0
9.112,-0.065,0
9.114,-0.065,0
9.116,-0.065,0
9.118,-0.065,0
9.12,-0.07,0
9.122,-0.07,0
9.124,-0.075,0
9.126,-0.08,0
9.128,-0.08,0
9.13,-0.08,0
9.132,-0.08,0
9.134,-0.08,0
9.136,-0.08,0
9.138,-0.08,0
9.14,-0.075,0
9.142,-0.075,0
9.144,-0.07,0
9.146,-0.07,0
9.148,-0.07,0
9.15,-0.07,0
9.152,-0.07,0
9.154,-0.07,0
9.156,-0.07,0
9.158,-0.075,0
9.16,-0.075,0
9.162,-0.075,0
9.164,-0.075,0
9.166,-0.075,0
9.168,-0.07,0
9.17,-0.07,0
9.172,-0.07,0
9.174,-0.07,0
9.176,-0.07,0
9.178,-0.07,0
9.18,-0.07,0
9.182,-0.075,0
9.184,-0.075,0
9.186,-0.075,0
9.188,-0.08,0
9.19,-0.075,0
9.192,-0.075,0
9.194,-0.075,0
9.196,-0.075,0
9.198,-0.075,0
9.2,-0.075,0
9.202,-0.075,0
9.204,-0.075,0
9.206,-0.08,0
9.208,-0.08,0
9.21,-0.08,0
9.212,-0.08,0
9.214,-0.08,0
9.216,-0.075,0
9.218,-0.075,0
9.22,-0.07,0
9.222,-0.065,0
9.224,-0.065,0
9.226,-0.06,0
9.228,-0.055,0
9.23,-0.05,0
9.232,-0.05,0
9.234,-0.045,0
9.236,-0.045,0
9.238,-0.045,0
9.24,-0.045,0
9.242,-0.04,0
9.244,-0.04,0
9.246,-0.04,0
9.248,-0.04,0
9.25,-0.035,0
9.252,-0.03,0
9.254,-0.025,0
9.256,-0.02,0
9.258,-0.01,0
9.26,-0.005,0
9.262,0.005,0
9.264,0.01,0
9.266,0.015,0
9.268,0.015,0
9.27,0.02,0
9.272,0.015,0
9.274,0.01,0
9.276,0.005,0
9.278,-0.005,0
9.28,-0.015,0
9.282,-0.025,0
9.284,-0.035,0
9.286,-0.04,0
9.288,-0.045,0
9.29,-0.045,0
9.292,-0.045,0
9.294,-0.045,0
9.296,-0.045,0
9.298,-0.045,0
9.3,-0.05,0
9.302,-0.055,0
9.304,-0.06,0
9.306,-0.065,0
9.308,-0.075,0
9.31,-0.08,0
9.312,-0.08,0
9.314,-0.08,0
9.316,-0.08,0
9.318,-0.075,0
9.32,-0.075,0
9.322,-0.07,0
9.324,-0.07,0
9.326,-0.075,0
9.328,-0.075,0
9.33,-0.08,0
9.332,-0.08,0
9.334,-0.085,0
9.336,-0.085,0
9.338,-0.08,0
9.34,-0.08,0
9.342,-0.075,0
9.344,-0.075,0
9.346,-0.075,0
9.348,-0.075,0
9.35,-0.075,0
9.352,-0.075,0
9.354,-0.08,0
9.356,-0.08,0
9.358,-0.08,0
9.36,-0.08,0
9.362,-0.08,0
9.364,-0.08,0
9.366,-0.08,0
9.368,-0.085,0
9.37,-0.09,0
9.372,-0.095,0
9.374,-0.1,0
9.376,-0.105,0
9.378,-0.105,0
9.38,-0.105,0
9.382,-0.105,0
9.384,-0.105,0
9.386,-0.105,0
9.388,-0.1,0
9.39,-0.095,0
9.392,-0.085,0
9.394,-0.06,0
9.396,-0.025,0
9.398,0.025,0
9.4,0.09,0
9.402,0.175,0
9.404,0.265,0
9.406,0.36,0
9.408,0.455,0
9.41,0.53,0
9.412,0.59,0
9.414,0.615,0
9.416,0.61,0
9.418,0.575,0
9.42,0.51,0
9.422,0.415,0
9.424,0.31,0
9.426,0.195,0
9.428,0.085,0
9.43,-0.01,0
9.432,-0.09,0
9.434,-0.145,0
9.436,-0.175,0
9.438,-0.185,0
9.44,-0.175,0
9.442,-0.155,0
9.444,-0.13,0
9.446,-0.105,0
9.448,-0.08,0
9.45,-0.06,0
9.452,-0.05,0
9.454,-0.045,0
9.456,-0.05,0
9.458,-0.05,0
9.46,-0.055,0
9.462,-0.06,0
9.464,-0.06,0
9.466,-0.06,0
9.468,-0.06,0
9.47,-0.055,0
9.472,-0.05,0
9.474,-0.05,0
9.476,-0.05,0
9.478,-0.05,0
9.48,-0.055,0
9.482,-0.06,0
9.484,-0.06,0
9.486,-0.06,0
9.488,-0.06,0
9.49,-0.06,0
9.492,-0.055,0
9.494,-0.05,0
9.496,-0.045,0
9.498,-0.04,0
9.5,-0.04,0
9.502,-0.04,0
9.504,-0.04,0
9.506,-0.04,0
9.508,-0.04,0
9.51,-0.035,0
9.512,-0.035,0
9.514,-0.03,0
9.516,-0.025,0
9.518,-0.02,0
9.52,-0.015,0
9.522,-0.01,0
9.524,-0.01,0
9.526,-0.005,0
9.528,-0.005,0
9.53,-0.005,0
9.532,-0.01,0
9.534,-0.01,0
9.536,-0.01,0
9.538,-0.01,0
9.54,-0.01,0
9.542,-0.005,0
9.544,-0.005,0
9.546,-0.005,0
9.548,0,0
9.55,0,0
9.552,0,0
9.554,0,0
9.556,0.005,0
9.558,0.005,0
9.56,0.005,0
9.562,0.005,0
9.564,0.005,0
9.566,0.01,0
9.568,0.015,0
9.57,0.02,0
9.572,0.03,0
9.574,0.035,0
9.576,0.045,0
9.578,0.05,0
9.58,0.055,0
9.582,0.06,0
9.584,0.065,0
9.586,0.065,0
9.588,0.07,0
9.59,0.075,0
9.592,0.075,0
9.594,0.08,0
9.596,0.085,0
9.598,0.09,0
9.6,0.095,0
9.602,0.1,0
9.604,0.105,0
9.606,0.11,0
9.608,0.115,0
9.61,0.12,0
9.612,0.125,0
9.614,0.135,0
9.616,0.14,0
9.618,0.15,0
9.62,0.155,0
9.622,0.16,0
9.624,0.17,0
9.626,0.175,0
9.628,0.18,0
9.63,0.185,0
9.632,0.19,0
9.634,0.195,0
9.636,0.2,0
9.638,0.205,0
9.64,0.205,0
9.642,0.21,0
9.644,0.21,0
9.646,0.21,0
9.648,0.205,0
9.65,0.2,0
9.652,0.195,0
9.654,0.185,0
9.656,0.18,0
9.658,0.18,0
9.66,0.175,0
9.662,0.175,0
9.664,0.175,0
9.666,0.175,0
9.668,0.17,0
9.67,0.16,0
9.672,0.155,0
9.674,0.14,0
9.676,0.125,0
9.678,0.11,0
9.68,0.095,0
9.682,0.08,0
9.684,0.065,0
9.686,0.055,0
9.688,0.045,0
9.69,0.04,0
9.692,0.035,0
9.694,0.03,0
9.696,0.025,0
9.698,0.02,0
9.7,0.02,0
9.702,0.015,0
9.704,0.01,0
9.706,0.005,0
9.708,0.005,0
9.71,0,0
9.712,-0.005,0
9.714,-0.015,0
9.716,-0.02,0
9.718,-0.03,0
9.72,-0.04,0
9.722,-0.045,0
9.724,-0.055,0
9.726,-0.06,0
9.728,-0.06,0
9.73,-0.06,0
9.732,-0.06,0
9.734,-0.05,0
9.736,-0.045,0
9.738,-0.04,0
9.74,-0.035,0
9.742,-0.035,0
9.744,-0.035,0
9.746,-0.04,0
9.748,-0.045,0
9.75,-0.05,0
9.752,-0.055,0
9.754,-0.06,0
9.756,-0.06,0
9.758,-0.055,0
9.76,-0.055,0
9.762,-0.05,0
9.764,-0.045,0
9.766,-0.04,0
9.768,-0.04,0
9.77,-0.04,0
9.772,-0.045,0
9.774,-0.045,0
9.776,-0.05,0
9.778,-0.05,0
9.78,-0.055,0
9.782,-0.055,0
9.784,-0.055,0
9.786,-0.055,0
9.788,-0.05,0
9.79,-0.05,0
9.792,-0.05,0
9.794,-0.05,0
9.796,-0.05,0
9.798,-0.045,0
9.8,-0.045,0
9.802,-0.04,0
9.804,-0.035,0
9.806,-0.03,0
9.808,-0.025,0
9.81,-0.025,0
9.812,-0.025,0
9.814,-0.025,0
9.816,-0.025,0
9.818,-0.03,0
9.82,-0.035,0
9.822,-0.035,0
9.824,-0.035,0
9.826,-0.035,0
9.828,-0.035,0
9.83,-0.03,0
9.832,-0.03,0
9.834,-0.03,0
9.836,-0.03,0
9.838,-0.03,0
9.84,-0.03,0
9.842,-0.03,0
9.844,-0.03,0
9.846,-0.035,0
9.848,-0.03,0
9.85,-0.03,0
9.852,-0.03,0
9.854,-0.03,0
9.856,-0.03,0
9.858,-0.03,0
9.86,-0.03,0
9.862,-0.03,0
9.864,-0.03,0
9.866,-0.025,0
9.868,-0.025,0
9.87,-0.02,0
9.872,-0.02,0
9.874,-0.02,0
9.876,-0.025,0
9.878,-0.025,0
9.88,-0.03,0
9.882,-0.03,0
9.884,-0.03,0
9.886,-0.03,0
9.888,-0.025,0
9.89,-0.015,0
9.892,-0.005,0
9.894,0.005,0
9.896,0.02,0
9.898,0.03,0
9.9,0.045,0
9.902,0.055,0
9.904,0.065,0
9.906,0.07,0
9.908,0.08,0
9.91,0.085,0
9.912,0.085,0
9.914,0.09,0
9.916,0.09,0
9.918,0.09,0
9.92,0.085,0
9.922,0.085,0
9.924,0.08,0
9.926,0.08,0
9.928,0.075,0
9.93,0.075,0
9.932,0.08,0
9.934,0.08,0
9.936,0.08,0
9.938,0.08,0
9.94,0.085,0
9.942,0.08,0
9.944,0.08,0
9.946,0.08,0
9.948,0.075,0
9.95,0.075,0
9.952,0.075,0
9.954,0.075,0
9.956,0.08,0
9.958,0.08,0
9.96,0.085,0
9.962,0.09,0
9.964,0.095,0
9.966,0.1,0
9.968,0.105,0
9.97,0.105,0
9.972,0.11,0
9.974,0.105,0
9.976,0.105,0
9.978,0.1,0
9.98,0.1,0
9.982,0.095,0
9.984,0.095,0
9.986,0.095,0
9.988,0.095,0
9.99,0.095,0
9.992,0.095,0
9.994,0.095,0
9.996,0.095,0
9.998,0.095,0
